I II V1 V2 V3 V4 V5 V6
-5 1 9 4 6 5 3 -3
-4 1 9 5 7 6 4 -3
-3 1 9 4 6 6 3 -3
-3 2 8 5 6 6 3 -3
-3 3 8 5 7 6 4 -2
-3 4 6 5 7 7 3 -2
-3 3 6 5 7 8 4 0
-3 1 6 4 6 7 3 -2
-3 0 7 6 8 8 3 -2
-2 2 9 7 9 9 4 0
0 3 10 7 9 9 5 0
-3 1 9 6 7 8 4 -3
-5 0 7 5 7 7 3 -3
-4 2 6 6 7 8 4 -2
-3 3 7 7 9 10 5 1
-3 3 7 6 10 10 5 0
-3 4 6 6 9 9 4 0
-2 5 7 7 9 10 5 1
-2 5 7 8 10 11 5 1
-2 4 8 7 10 11 4 0
-3 2 9 8 11 11 4 0
-3 2 8 8 11 11 5 0
-3 3 8 8 11 10 5 0
-2 3 6 7 10 9 4 -2
-2 3 6 7 10 9 4 -2
-2 4 6 7 10 9 4 0
-3 4 6 7 10 9 4 0
-3 3 7 9 11 10 5 2
-3 3 7 9 11 10 5 1
-4 2 7 8 10 10 5 0
-4 1 8 9 11 11 6 0
-4 0 7 8 11 10 5 -2
-3 0 6 8 11 10 4 -2
-3 1 6 7 11 9 4 -3
-3 2 6 7 11 11 5 0
-3 2 6 7 10 10 5 0
-4 2 6 6 9 9 4 -2
-2 2 6 5 9 10 4 0
0 3 5 5 8 10 4 -2
-3 2 5 5 9 10 4 -3
-4 1 5 5 9 10 4 -3
-3 0 6 5 9 9 4 -3
-2 1 6 4 9 9 4 -3
-2 2 5 3 8 8 4 -3
-4 2 4 2 6 7 3 -4
-5 1 4 3 7 8 4 -3
-5 2 4 3 7 8 3 -2
-4 3 4 2 7 8 2 -3
-3 3 5 3 7 7 2 -2
-3 2 5 2 7 7 2 -3
-4 1 5 3 7 8 3 -2
-4 0 5 2 6 7 2 -4
-4 -2 4 0 5 6 1 -5
-2 -2 4 -2 5 5 0 -5
1 0 3 0 5 6 0 -4
0 1 3 -2 4 5 0 -5
-4 -2 3 -3 2 3 -2 -6
-4 -2 2 -3 2 3 -2 -4
-3 0 4 -2 4 5 0 -3
-4 0 5 -3 3 5 0 -4
-5 -2 5 -3 2 4 0 -5
-5 -2 5 -2 3 4 0 -5
-3 -2 3 -3 2 4 0 -5
0 -2 1 -4 1 3 -2 -6
0 -2 -2 -7 -2 2 -4 -7
-4 -3 1 -6 0 2 -4 -6
-6 -3 1 -6 0 2 -4 -6
-5 -3 1 -6 0 2 -3 -6
-5 -3 2 -7 0 2 -3 -6
-5 -4 2 -7 -2 2 -4 -6
-5 -4 1 -7 -2 1 -4 -7
-6 -4 2 -6 0 2 -3 -6
-5 -4 1 -7 -2 2 -4 -8
-4 -4 1 -7 -2 2 -4 -8
-4 -3 1 -7 -2 2 -4 -7
-4 -3 1 -8 -2 1 -5 -7
-4 -3 2 -8 -2 1 -5 -7
-5 -2 2 -8 -2 0 -5 -7
-5 -2 3 -9 -3 0 -5 -8
-5 -3 3 -9 -3 0 -6 -8
-5 -3 3 -8 -4 0 -6 -8
-5 -3 2 -8 -4 -2 -6 -8
-5 -3 1 -9 -5 -2 -6 -8
-5 -3 0 -10 -5 -2 -6 -8
-4 -3 1 -10 -5 -2 -6 -8
-3 -3 0 -11 -6 -3 -7 -9
-3 -3 0 -11 -6 -3 -7 -9
-3 -4 1 -10 -5 -2 -6 -8
-4 -4 1 -10 -5 -2 -7 -8
-5 -4 1 -10 -5 -2 -7 -8
-5 -5 0 -10 -5 -2 -7 -8
-5 -6 -2 -11 -6 -3 -8 -9
-4 -5 -3 -11 -7 -4 -9 -9
-4 -3 0 -9 -5 -3 -8 -8
-4 -4 0 -10 -6 -3 -8 -8
-4 -5 0 -12 -7 -4 -8 -9
-3 -3 -2 -12 -7 -4 -8 -10
0 -2 -3 -13 -8 -5 -9 -10
-2 -3 -2 -13 -8 -4 -8 -9
-5 -4 0 -13 -8 -3 -8 -9
-5 -5 0 -12 -7 -2 -8 -8
-5 -6 0 -12 -6 -2 -7 -8
-4 -6 1 -12 -6 -3 -7 -8
-4 -5 0 -12 -8 -5 -9 -9
-3 -4 0 -12 -7 -4 -9 -9
-3 -4 0 -12 -7 -4 -9 -9
-4 -5 -2 -13 -8 -5 -9 -9
-5 -6 -2 -12 -8 -4 -8 -8
-3 -3 0 -12 -8 -4 -8 -8
0 0 0 -12 -7 -4 -8 -7
-3 -4 0 -12 -6 -4 -7 -7
-6 -7 -2 -13 -7 -4 -8 -8
-5 -7 -2 -13 -8 -4 -9 -10
-5 -6 -2 -12 -8 -4 -8 -9
-5 -6 -2 -13 -8 -5 -8 -9
-4 -6 0 -13 -7 -4 -8 -8
-3 -5 -2 -13 -7 -4 -8 -8
-3 -4 0 -12 -6 -3 -8 -7
-4 -3 2 -11 -6 -3 -8 -7
-3 -2 3 -11 -6 -3 -8 -7
-2 1 3 -11 -6 -2 -7 -7
-2 0 2 -11 -6 -2 -7 -7
-3 -2 1 -10 -5 0 -6 -7
-3 0 1 -9 -5 1 -6 -7
-2 3 1 -10 -5 0 -6 -7
0 4 3 -9 -4 1 -4 -6
1 5 3 -10 -5 -2 -6 -7
1 5 3 -9 -5 -2 -6 -6
-3 5 4 -7 -4 1 -5 -5
-3 5 5 -7 -4 1 -5 -6
-3 5 6 -6 -3 2 -4 -5
-2 5 8 -5 0 3 -3 -4
0 6 8 -5 0 3 -3 -5
2 7 8 -5 1 4 -3 -5
3 8 8 -5 2 5 -3 -4
3 9 9 -3 4 7 0 -2
3 11 10 -2 5 8 1 0
5 14 10 2 7 11 3 3
6 17 9 3 8 12 4 4
6 18 9 3 9 13 6 6
6 19 7 3 9 13 7 7
7 18 6 2 9 14 8 7
9 17 4 0 7 12 6 6
11 12 -2 -4 3 9 3 3
11 8 -5 -7 0 6 0 1
10 7 -7 -10 -3 4 -3 0
9 7 -8 -9 -3 5 -3 2
9 7 -9 -11 -4 4 -3 1
9 7 -8 -12 -5 3 -3 2
9 8 -8 -12 -4 3 -2 2
8 7 -7 -10 -3 4 0 2
7 6 -8 -12 -4 3 0 1
6 6 -9 -14 -6 2 -2 1
8 10 -9 -15 -7 1 -3 1
9 13 -9 -15 -6 1 -2 2
8 13 -10 -16 -7 1 -2 2
5 11 -9 -17 -8 1 -3 1
1 8 -7 -18 -9 -2 -5 0
-3 4 -6 -17 -9 -3 -6 -3
-4 1 -4 -16 -9 -4 -8 -4
-4 -2 -5 -17 -11 -6 -10 -7
-4 -5 -6 -18 -12 -6 -10 -7
-4 -7 -7 -19 -13 -8 -12 -8
-4 -9 -7 -20 -14 -9 -13 -10
-5 -11 -8 -20 -15 -9 -14 -12
-4 -12 -8 -22 -16 -10 -15 -14
-2 -10 -10 -24 -19 -13 -17 -15
0 -9 -8 -23 -17 -11 -16 -13
-2 -9 -8 -23 -18 -12 -16 -14
-4 -11 -8 -23 -18 -11 -16 -14
-4 -11 -8 -21 -17 -11 -16 -14
-5 -11 -7 -20 -15 -9 -14 -13
-6 -12 -8 -20 -16 -9 -15 -14
-5 -11 -8 -20 -15 -9 -15 -13
-4 -9 -8 -21 -15 -10 -15 -13
-4 -9 -8 -21 -15 -10 -14 -13
-4 -10 -8 -22 -16 -10 -15 -13
-5 -11 -8 -21 -16 -10 -15 -13
-6 -12 -7 -21 -16 -11 -16 -13
-6 -11 -6 -20 -15 -10 -15 -13
-3 -9 -6 -20 -15 -11 -14 -13
-3 -9 -6 -20 -15 -11 -14 -13
-6 -12 -6 -20 -15 -9 -14 -14
-6 -12 -7 -20 -16 -10 -17 -14
-6 -12 -7 -20 -16 -11 -16 -13
-7 -12 -5 -19 -15 -9 -15 -12
-8 -12 -5 -19 -15 -9 -16 -12
-7 -12 -5 -18 -15 -9 -16 -12
-6 -12 -6 -19 -16 -10 -17 -13
-6 -12 -6 -19 -16 -10 -16 -13
-4 -12 -5 -18 -15 -9 -15 -13
-3 -12 -6 -20 -14 -11 -16 -14
-4 -13 -7 -20 -14 -10 -16 -15
-5 -13 -7 -19 -14 -10 -16 -14
-4 -12 -6 -19 -14 -9 -15 -13
-4 -12 -6 -19 -13 -9 -14 -13
-4 -12 -6 -19 -13 -9 -15 -13
-4 -12 -6 -19 -13 -9 -16 -13
-5 -12 -4 -17 -13 -9 -16 -14
-5 -12 -2 -15 -12 -10 -17 -15
-6 -13 2 -11 -10 -9 -17 -15
-7 -14 5 -7 -8 -8 -18 -17
-8 -14 8 2 -3 -7 -19 -19
-9 -15 13 15 8 0 -17 -19
-6 -14 16 27 20 8 -12 -16
-2 -11 21 42 36 21 -4 -11
1 -4 29 63 60 42 10 -2
3 5 39 89 91 68 28 11
5 13 47 113 127 104 53 25
10 18 54 136 167 141 76 39
16 21 61 157 205 177 100 53
22 25 67 171 239 212 123 66
30 34 67 173 266 243 148 84
37 45 57 158 274 262 168 100
46 52 33 119 252 255 174 110
55 55 -5 54 190 213 160 112
62 57 -54 -49 82 132 128 108
62 57 -108 -188 -60 23 78 94
54 47 -156 -339 -206 -91 15 65
42 21 -198 -471 -337 -196 -52 25
34 -7 -243 -574 -441 -280 -108 -8
36 -20 -278 -628 -495 -322 -137 -23
44 -21 -291 -618 -492 -322 -141 -25
45 -19 -290 -589 -472 -311 -139 -25
37 -15 -285 -561 -451 -300 -136 -23
26 -2 -269 -519 -418 -277 -126 -18
14 18 -241 -461 -367 -242 -106 -8
6 32 -217 -406 -320 -208 -87 2
2 33 -203 -367 -287 -187 -77 4
1 30 -190 -331 -259 -169 -71 1
0 31 -176 -294 -228 -147 -63 1
0 30 -161 -259 -200 -129 -57 1
-2 26 -146 -228 -177 -114 -51 0
0 22 -129 -197 -154 -100 -46 -2
1 21 -107 -162 -129 -82 -38 -2
2 20 -85 -129 -103 -65 -30 0
4 16 -65 -102 -82 -52 -25 -2
4 8 -51 -80 -65 -43 -22 -4
2 2 -40 -63 -53 -34 -21 -6
3 -2 -32 -50 -44 -28 -19 -7
3 0 -23 -38 -34 -22 -16 -6
3 0 -17 -30 -28 -18 -14 -5
2 -3 -13 -24 -25 -17 -14 -6
1 -6 -12 -22 -24 -16 -15 -8
-2 -7 -10 -20 -22 -16 -14 -8
-3 -8 -8 -17 -19 -14 -13 -8
-3 -9 -7 -14 -17 -14 -13 -8
-3 -9 -6 -11 -16 -13 -13 -8
-3 -9 -6 -10 -15 -12 -13 -8
0 -9 -4 -9 -14 -11 -13 -8
1 -9 -3 -8 -14 -11 -13 -9
1 -9 -2 -5 -12 -10 -13 -9
0 -10 0 -3 -10 -9 -13 -8
0 -10 1 -2 -9 -9 -13 -8
0 -11 1 1 -8 -9 -12 -8
-3 -12 2 3 -7 -7 -12 -7
-3 -12 3 4 -6 -7 -12 -7
-2 -12 4 6 -6 -6 -11 -7
1 -11 4 7 -4 -5 -11 -7
3 -10 4 7 -3 -5 -10 -8
1 -10 4 7 -3 -5 -10 -8
-3 -11 4 8 -3 -5 -11 -8
-3 -10 5 10 -2 -4 -10 -7
-2 -10 6 10 -2 -4 -11 -8
0 -11 7 11 0 -3 -10 -8
1 -11 8 13 1 -2 -9 -7
2 -11 9 14 2 -2 -9 -7
1 -12 9 14 2 -2 -10 -7
0 -12 8 15 3 -2 -10 -8
0 -12 9 16 3 -2 -9 -8
0 -12 10 17 4 0 -8 -7
-2 -11 10 18 4 0 -7 -6
-4 -12 11 20 6 0 -7 -5
-4 -12 12 20 7 1 -6 -5
0 -12 13 22 7 2 -6 -5
2 -12 13 23 7 2 -6 -5
1 -12 13 23 7 1 -6 -5
-2 -12 13 24 8 1 -6 -5
0 -12 13 26 9 2 -5 -5
2 -12 13 26 10 2 -5 -5
3 -10 13 27 11 3 -5 -5
3 -8 13 29 12 3 -5 -4
2 -9 14 30 12 5 -5 -4
1 -11 15 30 12 5 -5 -4
0 -11 16 32 13 6 -4 -4
0 -12 17 35 16 8 -2 -3
1 -12 17 35 16 7 -3 -4
1 -12 17 37 16 6 -3 -4
2 -10 17 37 16 7 -3 -4
3 -9 18 38 18 9 -2 -3
2 -9 18 38 19 9 -2 -3
1 -9 17 40 20 8 -2 -3
3 -7 18 43 20 9 0 -2
4 -7 20 45 21 10 1 0
3 -8 20 46 21 10 2 0
4 -8 21 48 23 11 2 1
6 -6 23 50 25 14 3 1
7 -6 23 50 25 13 3 1
4 -9 22 51 25 13 3 1
4 -8 23 52 26 14 3 1
7 -5 24 55 28 16 4 3
8 -4 24 57 30 16 6 4
7 -5 24 58 30 16 6 3
6 -6 25 60 32 18 6 4
5 -5 27 63 33 19 7 5
3 -5 27 65 34 20 8 5
2 -6 27 65 36 20 8 6
4 -7 28 67 36 20 9 6
7 -4 29 69 37 20 9 6
8 0 29 70 38 21 10 6
9 0 28 72 39 21 10 7
7 -2 28 74 40 21 11 8
7 -2 28 76 43 23 12 9
8 1 30 78 45 24 13 10
10 2 31 80 46 25 13 11
10 2 32 84 47 26 14 10
9 2 33 85 48 27 14 10
10 3 34 87 49 27 15 11
10 4 34 89 50 28 15 12
10 4 34 91 51 29 16 13
10 5 34 92 52 30 16 13
10 6 35 95 54 30 18 14
11 7 36 97 55 30 18 14
13 8 36 98 55 31 18 14
13 8 37 101 57 32 19 15
14 8 38 103 58 33 20 16
14 8 39 104 58 33 20 17
14 9 38 105 57 32 20 16
15 10 39 106 58 33 21 17
15 11 39 106 58 32 20 17
15 11 38 107 58 32 20 17
15 11 37 106 57 31 19 16
14 10 37 107 57 31 19 16
13 10 38 108 57 31 19 17
13 10 39 108 57 31 19 17
14 10 40 109 57 31 20 18
15 10 42 109 57 31 19 18
15 10 40 108 56 29 18 18
14 10 40 108 54 27 17 17
17 12 39 107 53 26 17 17
18 14 40 107 53 25 17 18
16 14 39 106 51 24 16 18
15 12 39 105 49 23 15 17
15 11 39 103 48 21 14 15
15 10 39 102 47 20 14 15
15 9 38 100 44 18 12 13
15 9 38 99 42 16 11 13
15 9 38 97 40 15 10 12
16 9 37 95 38 13 9 12
16 8 36 93 36 11 7 11
15 8 36 91 34 9 6 10
15 8 35 90 33 7 5 9
15 8 34 89 32 6 4 9
14 7 35 88 32 7 5 10
13 6 36 87 31 7 5 10
14 6 35 84 29 5 4 9
14 5 35 82 28 4 4 9
14 5 34 79 26 3 3 8
13 4 33 77 24 1 2 7
14 4 32 75 23 0 1 6
14 4 31 72 22 -2 0 5
13 3 31 70 21 -2 0 4
11 2 32 68 21 0 0 5
10 3 32 67 21 1 0 5
10 3 32 65 21 1 0 4
10 2 32 64 20 2 -2 4
10 2 31 61 20 2 -2 4
10 1 29 57 19 1 -3 3
9 0 27 54 18 1 -3 2
7 0 26 52 18 2 -3 2
6 1 26 50 18 2 -2 3
7 2 25 47 17 2 -2 2
7 2 23 44 17 3 0 2
5 2 23 42 17 4 1 2
4 1 23 39 16 3 1 1
6 3 23 37 17 5 2 1
7 3 23 35 17 6 2 2
4 0 21 32 15 5 1 1
2 -4 19 29 13 3 0 0
2 -4 18 27 13 3 0 0
1 -4 18 25 14 4 1 0
1 -4 17 23 13 4 1 1
1 -3 16 21 12 4 1 0
1 -3 16 20 12 5 2 0
-2 -4 16 18 11 6 2 1
-3 -5 15 16 10 6 2 0
-4 -6 14 15 9 6 1 -2
-4 -5 13 13 8 4 1 -2
-4 -5 13 12 8 3 1 -2
-4 -5 13 9 8 3 1 -2
-4 -5 12 8 7 3 0 -2
-2 -4 11 7 6 2 0 -2
-3 -3 10 7 7 4 1 0
-5 -3 11 7 7 5 1 0
-5 -5 11 6 7 5 1 -2
-4 -7 9 5 5 4 0 -4
-4 -7 9 4 5 4 0 -4
-5 -6 9 4 5 4 1 -3
-5 -5 9 4 5 4 1 -3
-5 -6 9 3 5 4 1 -3
-6 -6 9 2 4 4 1 -3
-6 -5 9 2 5 4 2 -3
-6 -5 9 2 5 4 3 -2
-6 -5 9 2 5 5 3 -2
-7 -6 10 3 6 6 4 0
-5 -6 10 2 6 5 3 -2
-4 -4 11 3 6 6 3 -2
-5 -4 10 3 6 5 2 -3
-8 -7 8 2 4 4 1 -4
-8 -7 7 1 4 3 1 -4
-4 -4 8 2 5 4 2 -3
-3 -2 8 2 5 5 2 -2
-5 -3 9 2 5 4 2 -2
-6 -2 9 2 6 5 3 0
-5 0 10 2 6 4 2 0
-6 -2 11 3 6 5 2 1
-7 -4 11 3 6 6 2 1
-8 -4 10 4 8 6 3 0
-7 -3 10 5 9 6 4 0
-5 -3 9 5 8 6 3 0
-5 -3 9 5 8 5 4 0
-6 -3 9 5 8 5 3 0
-7 -4 10 5 9 7 3 0
-7 -3 10 6 9 8 4 0
-6 -3 9 6 8 7 3 -2
-6 -3 9 5 9 7 3 -2
-6 -4 9 6 10 8 4 -2
-6 -5 9 7 10 8 4 0
-6 -5 10 7 10 8 5 1
-5 -3 10 7 10 8 4 1
-3 -2 9 7 10 8 4 0
-3 -2 9 7 10 8 4 0
-4 -2 8 7 10 8 4 0
-6 0 9 7 10 9 6 1
-6 1 9 8 11 9 5 0
-4 2 9 8 11 9 5 0
-4 1 10 8 12 10 5 1
-5 -2 9 7 11 9 5 1
-6 -3 9 8 11 8 4 0
-5 -2 10 9 13 10 5 1
-5 0 9 8 12 10 5 0
-5 0 8 8 12 10 5 -2
-6 -2 8 9 13 10 6 -2
-6 0 10 10 14 12 6 1
-5 1 11 11 15 12 7 1
-6 -2 10 10 15 12 7 0
-7 -3 9 9 14 11 7 0
-6 -2 9 9 14 11 7 1
-3 1 9 10 14 11 7 1
-3 0 9 10 15 12 8 3
-6 -2 9 10 14 11 9 3
-6 -4 8 9 13 11 9 3
-6 -3 7 9 13 10 7 1
-6 -2 8 10 14 11 8 2
-5 0 8 9 14 11 7 1
-4 0 8 9 14 11 6 0
-4 -2 7 8 13 10 5 -2
-4 0 8 9 13 10 4 -2
-4 0 9 9 13 10 4 -2
-5 -2 8 8 13 11 5 0
-7 -3 7 7 13 11 6 0
-8 -3 6 6 13 10 6 0
-9 -4 7 7 14 11 6 0
-9 -4 7 6 13 11 5 0
-6 -2 7 6 13 11 6 0
-4 0 8 6 13 11 7 0
-5 -3 6 4 12 10 5 -2
-8 -5 6 4 11 9 4 -3
-7 -4 6 4 11 9 4 -3
-5 -3 7 3 11 8 4 -3
-4 -3 7 3 11 7 4 -3
-7 -3 7 3 11 7 4 -2
-9 -3 6 3 11 8 4 -2
-7 1 6 3 11 8 4 -2
-6 2 6 2 10 7 3 -3
-7 -2 6 2 10 7 3 -3
-7 -3 6 2 10 8 3 -3
-5 -2 6 2 10 8 3 -3
-4 -3 7 2 10 8 4 -2
-7 -6 6 2 10 8 4 -2
-9 -8 3 0 8 6 2 -3
-9 -8 3 0 8 7 2 -3
-5 -4 3 -2 8 7 1 -3
-4 -2 4 0 8 7 2 -3
-7 -5 4 -2 8 6 1 -4
-10 -8 3 -4 7 5 1 -6
-10 -7 2 -4 6 5 2 -5
-9 -5 3 -3 6 6 2 -5
-8 -4 3 -4 5 5 1 -6
-7 -4 3 -4 5 4 1 -6
-7 -4 3 -4 6 4 1 -6
-9 -5 4 -3 7 5 2 -5
-10 -6 4 -4 7 6 2 -5
-10 -7 4 -5 6 6 2 -5
-9 -7 4 -4 6 6 2 -4
-8 -7 3 -5 5 4 1 -4
-8 -7 1 -6 4 3 0 -5
-9 -8 1 -5 4 3 0 -5
-8 -6 1 -6 4 3 0 -5
-8 -6 2 -7 4 3 0 -5
-9 -7 2 -6 4 3 0 -4
-9 -9 1 -6 3 1 0 -5
-9 -8 2 -6 3 2 0 -5
-9 -7 2 -6 3 2 0 -5
-9 -7 3 -6 4 3 0 -5
-9 -7 2 -6 4 2 0 -5
-9 -8 2 -7 3 2 -2 -7
-9 -9 1 -8 2 1 -3 -8
-10 -7 1 -9 2 1 -3 -8
-9 -6 0 -9 1 0 -4 -9
-9 -6 0 -8 1 0 -4 -9
-7 -6 -2 -9 1 0 -4 -10
-8 -6 -2 -9 0 0 -4 -10
-9 -6 0 -10 0 -2 -5 -10
-9 -6 0 -9 1 -2 -5 -11
-9 -6 0 -9 1 -2 -6 -10
-9 -7 1 -9 1 0 -5 -9
-11 -8 1 -9 1 -2 -5 -9
-10 -9 -2 -10 0 -3 -6 -10
-9 -9 -3 -12 -3 -4 -7 -10
-10 -7 -2 -11 -2 -3 -6 -8
-10 -7 1 -10 0 -2 -4 -7
-8 -7 1 -10 1 0 -3 -7
-7 -5 2 -10 1 1 -3 -7
-9 -7 3 -9 2 1 -3 -7
-11 -10 1 -10 0 0 -4 -9
-9 -9 -2 -11 -2 -2 -5 -10
-8 -6 0 -10 0 0 -4 -10
-10 -7 0 -10 1 0 -4 -10
-12 -9 -3 -12 -2 -3 -4 -11
-13 -9 -4 -12 -3 -3 -5 -11
-11 -7 -3 -11 -2 -3 -5 -10
-12 -6 0 -11 -2 -3 -5 -10
-12 -8 -2 -13 -3 -3 -6 -10
-10 -8 -2 -13 -4 -3 -6 -11
-8 -6 0 -13 -3 -4 -6 -10
-9 -7 1 -12 -2 -3 -6 -10
-11 -8 1 -12 -2 -3 -6 -10
-10 -8 0 -13 -2 -4 -6 -11
-10 -8 0 -13 -2 -4 -6 -10
-11 -8 1 -12 -2 -3 -6 -9
-11 -8 1 -12 -2 -3 -6 -10
-11 -8 1 -12 -2 -3 -6 -10
-11 -8 0 -13 -2 -3 -6 -10
-10 -8 -2 -13 -3 -3 -6 -10
-11 -7 0 -13 -2 -3 -6 -10
-11 -7 0 -13 -2 -3 -6 -10
-10 -5 0 -13 -2 -3 -6 -10
-9 -3 0 -12 0 -3 -5 -9
-9 -2 1 -12 1 -2 -4 -8
-9 -3 1 -11 0 0 -5 -8
-9 -4 1 -10 1 1 -4 -8
-9 -3 1 -10 2 1 -4 -9
-9 0 4 -9 3 2 -2 -7
-9 1 5 -9 4 2 -2 -7
-9 2 5 -8 4 2 -2 -7
-10 2 4 -8 4 1 -2 -7
-10 2 5 -8 4 1 -2 -8
-10 2 6 -8 4 1 -3 -8
-9 1 7 -9 4 2 -3 -9
-8 4 8 -7 5 4 -2 -8
-6 8 10 -5 7 5 1 -6
-8 8 11 -4 8 6 2 -4
-9 5 11 -3 8 6 2 -4
-9 5 11 0 9 7 3 -3
-7 8 11 0 10 8 5 -2
-7 11 12 1 13 10 8 1
-5 15 11 2 15 12 10 4
0 20 9 3 16 14 12 6
3 21 7 2 15 15 12 7
2 18 4 -2 13 13 10 7
0 14 3 -2 12 11 10 6
1 11 1 -4 10 9 8 4
-2 7 -2 -6 8 7 6 1
-4 5 -4 -8 6 5 4 -2
-3 5 -4 -9 6 5 3 0
0 6 -5 -10 5 4 3 -2
2 5 -6 -10 4 4 3 -2
3 5 -7 -11 4 5 2 0
1 5 -7 -11 4 5 3 0
-2 3 -8 -13 2 3 2 0
-3 4 -8 -14 1 2 1 0
-3 6 -6 -14 2 3 3 2
-3 8 -6 -15 1 3 3 2
-3 8 -5 -15 1 2 3 1
-5 8 -5 -15 1 2 3 0
-8 5 -4 -15 1 1 2 -3
-11 1 -4 -16 -2 -2 -2 -6
-13 -3 -3 -16 -3 -3 -4 -7
-14 -6 -3 -17 -3 -4 -4 -9
-13 -8 -4 -18 -5 -5 -6 -11
-12 -10 -6 -19 -7 -7 -9 -12
-12 -12 -6 -19 -8 -7 -10 -13
-13 -13 -7 -21 -10 -9 -11 -15
-13 -13 -8 -23 -11 -11 -12 -16
-12 -14 -8 -24 -11 -12 -13 -16
-12 -14 -8 -24 -11 -12 -13 -15
-13 -14 -7 -22 -10 -10 -11 -14
-12 -12 -6 -22 -9 -10 -12 -15
-12 -12 -5 -22 -9 -10 -12 -14
-13 -14 -5 -22 -10 -10 -12 -15
-13 -14 -6 -21 -9 -9 -11 -14
-13 -13 -7 -21 -9 -9 -11 -14
-13 -12 -7 -21 -9 -8 -11 -15
-14 -12 -7 -21 -9 -8 -11 -15
-14 -12 -7 -21 -9 -8 -11 -16
-15 -13 -6 -21 -8 -8 -11 -16
-15 -14 -7 -22 -9 -9 -12 -17
-15 -14 -7 -22 -9 -10 -12 -17
-14 -13 -5 -20 -8 -9 -11 -16
-13 -12 -4 -20 -7 -9 -10 -15
-13 -13 -5 -20 -9 -10 -12 -16
-14 -14 -5 -20 -9 -9 -12 -16
-13 -12 -5 -20 -9 -10 -12 -16
-12 -12 -4 -19 -8 -9 -11 -15
-12 -12 -4 -20 -8 -10 -10 -15
-13 -12 -5 -21 -9 -11 -12 -16
-15 -13 -5 -20 -8 -11 -12 -16
-16 -14 -3 -19 -7 -10 -11 -15
-16 -14 -3 -19 -7 -10 -11 -15
-15 -15 -4 -19 -8 -9 -12 -15
-15 -14 -5 -20 -9 -10 -12 -16
-15 -14 -5 -19 -9 -9 -12 -16
-15 -15 -3 -18 -8 -7 -10 -15
-14 -14 -4 -19 -8 -7 -11 -15
-14 -14 -3 -19 -8 -7 -10 -15
-15 -15 -2 -17 -7 -7 -11 -16
-15 -15 -2 -16 -7 -8 -13 -17
-16 -16 1 -15 -6 -9 -14 -19
-17 -16 4 -10 -4 -8 -15 -20
-18 -16 7 -4 1 -7 -16 -21
-19 -16 12 6 8 -4 -15 -22
-18 -15 16 17 19 3 -12 -20
-15 -13 17 27 30 11 -8 -18
-11 -11 22 43 47 25 2 -12
-9 -4 32 68 73 50 18 0
-6 5 42 94 106 79 40 13
-4 11 48 114 142 113 65 28
1 14 53 133 181 152 91 44
7 17 61 149 217 191 116 58
14 24 67 155 246 223 139 72
22 34 69 154 267 251 162 89
31 45 59 136 268 261 178 104
39 49 33 86 230 237 174 110
46 51 -8 0 143 172 147 105
49 54 -57 -120 14 70 101 94
43 52 -103 -259 -128 -41 46 74
31 37 -141 -389 -257 -146 -19 42
21 14 -178 -499 -369 -240 -83 3
18 -7 -220 -583 -455 -308 -128 -22
22 -15 -256 -615 -487 -329 -143 -29
26 -19 -270 -594 -473 -321 -143 -30
26 -21 -269 -564 -453 -310 -142 -30
21 -14 -262 -533 -432 -297 -138 -30
10 2 -239 -485 -390 -269 -123 -23
-4 19 -212 -428 -339 -232 -103 -14
-9 26 -194 -383 -300 -204 -89 -8
-10 25 -183 -348 -271 -186 -80 -8
-9 25 -175 -317 -245 -169 -75 -11
-8 25 -163 -283 -218 -149 -66 -10
-8 23 -149 -251 -192 -133 -60 -12
-9 19 -136 -223 -172 -119 -57 -14
-11 14 -120 -193 -149 -105 -52 -15
-12 9 -104 -163 -128 -91 -47 -17
-10 5 -85 -133 -104 -75 -41 -17
-9 4 -63 -102 -80 -59 -33 -15
-8 2 -48 -79 -62 -47 -27 -13
-9 -3 -38 -64 -51 -40 -25 -14
-9 -6 -30 -50 -40 -32 -21 -13
-9 -6 -22 -38 -30 -25 -17 -11
-9 -6 -16 -30 -24 -21 -15 -11
-9 -8 -12 -25 -21 -20 -15 -11
-9 -10 -9 -21 -19 -18 -15 -11
-10 -12 -8 -19 -17 -17 -15 -12
-11 -12 -7 -17 -15 -16 -14 -12
-12 -12 -5 -14 -13 -14 -13 -12
-12 -14 -4 -13 -13 -15 -13 -12
-9 -13 -5 -11 -12 -14 -12 -12
-7 -12 -3 -8 -10 -11 -10 -10
-7 -12 -4 -8 -10 -11 -11 -11
-9 -13 -5 -9 -10 -13 -14 -12
-9 -12 -4 -7 -9 -12 -14 -12
-9 -12 0 -5 -8 -11 -13 -12
-10 -13 0 -3 -6 -12 -14 -13
-11 -13 1 0 -5 -11 -13 -14
-11 -14 2 1 -4 -11 -14 -15
-10 -15 2 2 -4 -9 -13 -15
-9 -15 3 4 -2 -8 -12 -13
-8 -14 2 3 -2 -8 -12 -12
-8 -14 2 3 -2 -8 -12 -12
-9 -15 4 6 1 -6 -11 -10
-9 -15 5 7 1 -6 -10 -10
-11 -15 5 6 1 -7 -11 -11
-11 -15 6 7 2 -6 -11 -11
-8 -13 8 11 5 -4 -10 -10
-6 -13 9 12 5 -4 -9 -11
-7 -16 7 11 3 -6 -11 -13
-8 -15 7 12 4 -6 -11 -13
-7 -13 8 14 5 -5 -10 -12
-7 -13 7 14 6 -5 -10 -12
-8 -13 7 15 7 -4 -9 -13
-8 -13 9 16 7 -4 -9 -13
-9 -14 10 17 7 -4 -10 -13
-9 -15 12 18 8 -3 -9 -12
-8 -14 13 20 10 0 -7 -11
-6 -13 15 23 13 2 -4 -8
-6 -14 13 24 13 2 -4 -7
-7 -15 11 24 12 2 -4 -6
-7 -14 10 24 12 2 -3 -5
-7 -14 10 24 13 3 -3 -5
-7 -15 11 25 13 3 -3 -5
-8 -15 12 26 14 2 -4 -5
-8 -15 13 28 15 2 -5 -5
-6 -13 15 31 18 4 -3 -5
-4 -12 16 33 20 5 -2 -5
-4 -12 17 33 19 7 -2 -6
-4 -13 17 32 18 6 -4 -8
-3 -13 16 34 19 5 -4 -8
-2 -12 15 35 19 5 -4 -8
-4 -12 15 36 20 6 -4 -8
-6 -14 15 36 21 5 -4 -8
-7 -13 16 39 22 6 -4 -8
-5 -12 17 40 23 7 -3 -6
-4 -11 18 42 24 8 -2 -6
-3 -11 19 44 25 9 0 -6
-3 -11 20 46 26 9 0 -6
-2 -11 20 47 27 10 1 -5
0 -11 18 47 26 9 0 -5
-2 -12 19 49 28 11 1 -3
-2 -10 18 49 27 11 1 -2
-2 -9 18 52 30 13 4 1
-3 -8 20 55 32 15 5 2
-3 -9 21 57 33 15 5 2
-2 -10 23 59 34 15 5 2
0 -9 24 62 35 16 6 3
1 -9 24 62 35 16 6 3
1 -9 24 63 36 17 7 3
2 -9 24 66 38 18 7 3
2 -7 23 66 38 18 7 2
2 -6 24 68 40 19 8 2
3 -5 23 70 42 19 7 2
3 -4 24 72 43 21 8 3
2 -3 25 75 45 22 9 5
4 -3 26 77 46 22 9 5
5 -2 27 79 48 23 10 6
5 -3 28 81 50 24 11 7
5 -3 29 82 50 25 11 8
4 -4 29 86 51 26 13 10
5 -3 29 87 51 25 13 11
6 -2 29 88 52 25 13 11
7 0 30 90 54 26 14 13
9 1 31 91 54 26 14 14
10 2 31 93 54 27 15 14
10 3 32 95 55 28 16 14
9 4 33 97 56 28 17 14
8 4 33 98 57 29 17 14
8 4 32 99 57 29 17 13
9 4 32 100 58 30 17 14
8 4 32 101 58 30 17 15
8 5 33 102 58 29 17 15
10 5 33 102 56 28 16 14
11 5 34 103 57 27 16 15
10 5 35 104 58 27 16 16
9 6 36 105 58 27 17 16
10 6 37 105 58 27 17 16
11 6 34 104 55 24 15 14
10 4 32 102 54 23 15 13
8 4 32 101 53 22 15 13
10 6 32 100 52 21 14 14
12 8 30 98 49 18 12 12
12 8 30 97 47 17 11 11
12 7 31 96 46 16 10 11
11 8 30 95 45 14 8 11
10 7 31 93 43 12 6 10
9 6 33 93 43 11 6 11
9 5 32 92 40 10 6 10
10 4 31 91 38 8 4 8
10 3 31 90 37 8 4 8
10 3 30 88 35 6 2 8
10 3 29 86 33 5 1 7
10 5 27 82 30 2 0 6
10 6 27 79 29 2 0 6
11 5 26 77 28 1 -2 5
11 4 26 75 26 -2 -4 4
10 2 26 74 25 -2 -4 4
10 2 26 72 24 -3 -4 4
11 3 25 69 21 -5 -5 3
11 3 24 68 20 -5 -4 3
10 3 25 68 21 -4 -4 4
10 3 24 66 20 -3 -4 5
9 2 23 63 19 -4 -4 4
7 1 23 60 19 -3 -4 5
5 1 23 60 20 -2 -3 5
5 0 23 58 19 -3 -4 4
5 -2 23 56 19 -3 -5 3
5 -2 22 54 17 -4 -6 1
6 0 22 51 17 -3 -6 1
7 1 21 49 17 -2 -5 2
6 1 20 47 17 0 -4 2
4 0 19 44 17 0 -4 1
3 0 19 40 16 0 -5 1
2 0 19 38 15 0 -5 1
1 0 20 37 16 1 -3 1
1 -2 20 35 16 2 -3 0
1 -3 20 32 15 3 -3 -2
-2 -5 20 30 14 3 -3 -2
-4 -7 19 27 13 2 -4 -3
-4 -7 18 25 13 2 -4 -3
-5 -7 16 23 12 1 -5 -3
-5 -7 15 20 11 1 -5 -4
-4 -6 15 18 10 0 -5 -4
-4 -5 13 15 9 -2 -6 -5
-6 -4 12 13 9 0 -6 -6
-5 -4 11 12 7 -3 -7 -8
-2 -3 11 11 6 -3 -6 -8
-3 -2 12 11 5 -3 -6 -8
-5 -4 11 9 5 -3 -6 -8
-6 -5 10 7 4 -3 -6 -8
-7 -5 9 6 3 -3 -7 -9
-7 -5 9 5 3 -3 -6 -8
-7 -6 10 5 4 0 -3 -5
-8 -6 10 4 4 0 -3 -5
-8 -7 9 3 3 0 -4 -6
-9 -7 9 3 4 1 -3 -5
-9 -8 8 3 3 1 -3 -5
-8 -8 8 2 3 1 -2 -6
-8 -8 8 1 3 0 -2 -6
-7 -7 8 0 2 -2 -4 -8
-7 -6 8 0 1 -2 -4 -7
-7 -5 7 -2 0 -3 -4 -7
-7 -4 7 -2 1 -2 -3 -6
-7 -3 8 1 3 1 -2 -4
-5 0 8 1 3 1 -3 -4
-4 -2 8 0 3 2 -2 -3
-7 -5 7 -2 2 2 -2 -4
-8 -7 7 -2 2 1 -3 -4
-7 -6 9 1 4 2 -3 -3
-7 -6 10 2 4 2 -2 -3
-9 -7 10 2 4 3 0 -3
-9 -7 8 1 3 3 -2 -3
-10 -7 7 1 3 2 -2 -4
-11 -6 7 1 3 2 -3 -5
-9 -5 6 1 2 0 -4 -6
-8 -4 6 1 2 0 -4 -6
-6 -2 6 1 2 0 -4 -6
-7 0 7 2 3 1 -4 -6
-8 -3 7 2 3 1 -4 -6
-9 -4 6 2 3 0 -4 -6
-8 -3 6 2 3 0 -4 -6
-8 -2 7 3 4 2 -2 -5
-8 -2 7 3 6 3 -2 -5
-9 -2 7 4 6 3 -2 -4
-9 -2 6 4 5 3 -2 -4
-8 0 8 4 6 4 1 -3
-6 1 9 5 8 5 2 -3
-6 1 9 7 8 4 0 -3
-7 -2 9 6 7 3 -3 -3
-9 -4 9 6 7 3 -2 -2
-8 -3 8 6 7 3 -2 -3
-7 -2 8 5 7 3 -2 -3
-7 0 8 5 8 4 -2 -3
-7 0 8 6 8 5 -3 -4
-7 -2 9 6 8 5 -3 -5
-8 -2 9 7 9 6 -2 -5
-9 -3 7 7 9 6 0 -6
-9 -2 8 8 10 6 1 -5
-6 0 9 9 11 7 2 -4
-5 0 8 9 11 6 2 -3
-6 0 8 9 11 7 2 -2
-7 -2 8 9 10 6 2 -2
-8 -3 9 10 12 8 4 1
-8 -3 9 10 13 9 5 2
-9 -2 10 11 13 10 6 2
-7 -2 9 10 13 10 6 2
-5 0 8 10 12 9 6 1
-4 1 8 11 13 10 6 1
-5 2 8 10 12 9 5 0
-6 0 8 10 12 8 4 -2
-5 1 7 9 12 7 2 -3
-5 1 7 9 12 7 2 -3
-7 -2 6 9 12 8 2 -4
-9 -3 6 8 11 8 2 -3
-8 -2 7 9 12 9 3 -2
-8 0 7 9 12 9 3 -2
-8 -3 7 9 12 9 3 -2
-8 -5 7 8 12 9 3 0
-7 -4 6 8 12 9 3 0
-7 -3 6 8 12 10 4 1
-6 -3 5 7 10 9 2 0
-5 -2 5 6 10 8 2 -2
-4 -2 4 5 9 7 1 -3
-5 0 4 6 9 8 2 -3
-6 0 6 7 11 9 3 0
-7 0 5 7 10 8 2 -2
-8 -3 5 6 10 8 2 -3
-8 -4 5 5 8 7 1 -3
-6 -2 4 5 9 8 2 -2
-5 0 3 4 9 8 2 -2
-5 0 2 4 8 6 1 -4
-4 1 3 4 8 6 1 -4
-3 2 3 3 7 6 0 -3
-5 1 5 3 8 7 0 -4
-8 0 3 2 7 6 -2 -6
-9 -2 3 1 6 6 -2 -7
-9 -2 4 2 6 5 -2 -6
-9 -2 5 2 6 5 -2 -5
-10 -2 5 1 5 5 -2 -6
-9 -3 4 0 5 5 -2 -6
-6 -3 2 -2 4 4 -3 -7
-4 -2 0 -3 3 3 -3 -8
-3 -2 1 -3 3 3 -3 -7
-5 -2 2 -2 3 4 -2 -6
-9 -3 1 -3 3 4 -3 -6
-8 -3 1 -4 2 3 -4 -6
-5 -2 2 -3 3 4 -3 -5
-4 0 3 -2 4 4 -3 -5
-8 -4 1 -5 2 2 -4 -7
-9 -7 1 -5 1 2 -4 -8
-6 -4 2 -4 1 3 -4 -8
-5 -2 2 -4 1 3 -3 -8
-7 -3 1 -4 0 3 -4 -8
-7 -3 2 -4 1 3 -4 -7
-6 -2 2 -5 0 2 -5 -8
-7 -3 2 -5 1 2 -4 -7
-6 -3 -2 -7 -2 0 -6 -9
-6 -4 0 -7 -2 1 -6 -9
-7 -4 -2 -7 -3 0 -7 -10
-8 -4 -2 -7 -2 -2 -8 -11
-6 -4 0 -7 -2 -2 -7 -10
-5 -3 -2 -8 -3 -2 -6 -10
-5 -3 -2 -9 -4 -2 -6 -9
-6 -4 -2 -8 -3 0 -5 -8
-8 -5 0 -8 -3 1 -4 -7
-9 -5 0 -8 -3 0 -5 -7
-9 -5 0 -8 -3 0 -5 -7
-8 -5 0 -8 -2 0 -4 -7
-7 -5 0 -9 -3 -2 -5 -8
-6 -5 -2 -9 -3 -2 -5 -7
-6 -5 -2 -9 -3 -2 -5 -7
-7 -4 -3 -9 -3 -2 -5 -7
-7 -4 -3 -9 -4 -2 -5 -8
-7 -4 -2 -9 -5 -2 -5 -9
-5 -3 -2 -10 -5 -2 -6 -9
-4 -3 -2 -9 -5 -3 -7 -9
-5 -4 0 -9 -5 -3 -7 -10
-6 -5 0 -9 -5 -3 -6 -9
-6 -6 0 -9 -5 -3 -6 -8
-6 -6 -2 -9 -5 -3 -6 -8
-6 -5 -2 -9 -4 -3 -6 -8
-5 -4 -3 -10 -5 -3 -6 -8
-5 -4 -3 -10 -5 -3 -6 -8
-5 -4 -4 -11 -6 -3 -6 -9
-7 -5 -3 -11 -6 -3 -6 -9
-8 -5 0 -10 -5 -3 -6 -8
-8 -4 -2 -10 -6 -4 -7 -9
-8 -5 0 -10 -6 -3 -7 -9
-9 -6 -3 -11 -7 -5 -8 -10
-9 -6 -3 -12 -7 -6 -8 -11
-8 -5 -2 -12 -5 -4 -7 -10
-6 -2 -3 -12 -6 -5 -8 -11
-5 -2 -2 -11 -6 -5 -8 -10
-7 -4 -3 -12 -7 -5 -9 -11
-8 -5 -2 -12 -7 -4 -8 -10
-7 -4 -2 -11 -7 -5 -8 -10
-6 -4 -2 -11 -6 -5 -7 -10
-6 -4 -2 -12 -6 -5 -8 -11
-7 -4 0 -12 -6 -5 -8 -11
-8 -4 0 -11 -5 -5 -8 -10
-7 -5 0 -11 -6 -5 -8 -10
-7 -5 -2 -12 -7 -5 -9 -10
-7 -6 0 -11 -6 -4 -8 -9
-7 -5 0 -11 -6 -5 -8 -10
-8 -4 0 -10 -6 -4 -8 -10
-8 -3 1 -10 -5 -4 -8 -10
-9 -3 1 -10 -5 -4 -7 -10
-7 -2 2 -9 -4 -3 -7 -10
-6 1 3 -8 -4 -3 -7 -9
-6 1 3 -8 -4 -2 -6 -9
-5 2 2 -8 -4 -2 -6 -9
-4 3 2 -8 -4 0 -6 -8
-3 4 3 -8 -3 0 -5 -7
-3 6 4 -6 0 2 -3 -6
-3 7 4 -6 0 2 -4 -7
-5 7 4 -5 1 3 -3 -6
-8 6 5 -5 1 3 -2 -6
-7 6 6 -5 1 3 -2 -6
-6 7 7 -5 1 2 -3 -7
-5 8 8 -3 1 2 -3 -6
-4 8 8 -3 1 2 -4 -7
-4 9 9 -3 2 3 -3 -5
-4 11 10 -2 3 4 -3 -4
-3 12 11 2 6 7 1 0
0 13 11 3 7 8 3 1
0 14 10 2 8 9 4 1
-2 16 11 4 9 11 6 3
1 20 11 6 11 13 9 5
6 25 9 6 12 14 10 7
7 25 6 5 12 13 10 8
5 22 4 3 11 13 9 7
5 19 1 1 8 11 7 5
5 15 -2 -2 6 8 4 3
4 13 -4 -4 3 6 2 0
3 13 -4 -3 4 7 3 1
4 14 -3 -3 3 6 3 2
5 15 -5 -6 1 4 3 1
5 12 -7 -8 0 3 3 0
4 10 -8 -7 0 4 3 1
3 9 -8 -7 0 4 3 2
3 11 -10 -9 -2 2 2 1
3 13 -10 -11 -3 2 3 2
3 16 -9 -12 -3 2 3 2
3 18 -8 -12 -3 2 3 2
3 18 -8 -13 -4 2 2 1
1 15 -8 -14 -6 0 0 -2
-4 11 -7 -15 -7 -3 -3 -4
-7 8 -5 -13 -7 -3 -4 -6
-9 5 -3 -12 -6 -3 -4 -7
-8 2 -3 -13 -7 -4 -6 -8
-7 0 -6 -15 -9 -6 -8 -10
-6 -3 -7 -16 -11 -8 -10 -12
-7 -5 -7 -16 -12 -8 -11 -13
-7 -6 -6 -16 -12 -8 -11 -13
-8 -7 -7 -17 -12 -10 -11 -14
-9 -8 -7 -18 -12 -9 -11 -13
-8 -9 -8 -18 -13 -10 -12 -14
-7 -8 -9 -19 -13 -11 -12 -14
-7 -8 -9 -19 -13 -10 -12 -14
-8 -7 -9 -18 -12 -10 -11 -13
-9 -8 -8 -17 -11 -9 -11 -13
-9 -8 -7 -16 -11 -9 -11 -13
-10 -7 -6 -14 -10 -7 -10 -11
-7 -5 -6 -14 -10 -7 -10 -12
-5 -4 -6 -14 -9 -7 -10 -13
-6 -6 -6 -15 -10 -8 -11 -13
-8 -8 -6 -15 -10 -8 -11 -12
-9 -10 -5 -14 -10 -8 -10 -12
-8 -10 -6 -15 -11 -9 -11 -13
-8 -9 -5 -14 -11 -8 -10 -12
-8 -8 -4 -13 -11 -7 -10 -11
-9 -7 -4 -13 -10 -7 -9 -11
-7 -4 -6 -14 -11 -7 -9 -11
-6 -5 -6 -15 -11 -7 -9 -13
-9 -8 -6 -14 -11 -8 -10 -13
-9 -8 -6 -15 -10 -8 -10 -12
-9 -8 -6 -13 -10 -7 -9 -11
-9 -8 -6 -13 -10 -7 -8 -11
-9 -9 -6 -13 -10 -7 -9 -11
-8 -8 -6 -13 -10 -6 -9 -11
-7 -7 -6 -14 -10 -7 -10 -12
-7 -8 -6 -14 -11 -7 -11 -12
-8 -8 -5 -13 -10 -6 -10 -12
-8 -8 -6 -14 -10 -6 -10 -12
-7 -8 -6 -13 -10 -6 -10 -13
-6 -6 -5 -12 -10 -6 -10 -13
-7 -6 -2 -10 -8 -6 -9 -12
-9 -9 0 -9 -8 -7 -10 -13
-9 -11 1 -7 -7 -7 -11 -14
-8 -10 4 -3 -4 -7 -13 -16
-9 -10 8 7 2 -4 -12 -16
-11 -12 11 16 9 0 -13 -17
-12 -12 16 28 21 8 -9 -15
-9 -8 19 40 34 18 -3 -12
-7 -4 25 58 56 36 11 -4
-5 3 33 81 85 63 29 9
-2 11 42 104 118 96 53 23
5 18 46 118 153 131 77 37
12 23 53 137 192 172 104 52
18 28 62 154 232 213 132 68
24 35 66 162 265 248 157 85
29 46 66 163 287 279 183 104
38 56 52 142 286 289 199 121
47 62 22 90 245 264 196 128
54 66 -20 7 157 196 169 126
55 68 -68 -113 24 89 120 113
48 65 -114 -258 -127 -32 59 89
36 47 -152 -392 -265 -145 -12 51
25 20 -190 -504 -386 -245 -80 9
22 -2 -232 -582 -471 -311 -123 -16
26 -11 -260 -603 -493 -328 -136 -22
30 -13 -269 -578 -477 -319 -136 -23
29 -13 -267 -549 -457 -308 -137 -24
22 -8 -257 -514 -431 -294 -132 -24
10 8 -234 -464 -387 -264 -119 -20
0 24 -208 -407 -336 -228 -100 -11
-5 31 -191 -362 -296 -200 -86 -6
-7 27 -181 -329 -268 -183 -80 -9
-10 22 -171 -297 -241 -165 -76 -13
-10 22 -159 -264 -214 -147 -69 -14
-9 22 -147 -234 -190 -131 -62 -13
-8 19 -132 -205 -166 -115 -56 -13
-7 16 -114 -176 -144 -100 -50 -14
-5 14 -97 -145 -120 -83 -43 -13
-4 12 -78 -114 -97 -67 -35 -11
-3 8 -59 -87 -75 -52 -27 -10
-4 4 -45 -66 -59 -40 -22 -9
-5 0 -35 -53 -48 -34 -19 -9
-4 -2 -27 -40 -37 -27 -15 -7
1 1 -20 -30 -29 -22 -14 -7
1 1 -15 -22 -23 -19 -12 -5
-3 -2 -10 -16 -19 -15 -10 -4
-6 -5 -7 -11 -16 -12 -9 -4
-6 -7 -5 -8 -14 -12 -9 -5
-6 -8 -5 -7 -14 -13 -11 -7
-6 -10 -5 -6 -12 -12 -11 -8
-6 -12 -4 -4 -11 -11 -11 -9
-6 -10 -2 -2 -10 -10 -10 -8
-6 -9 -3 0 -9 -10 -11 -9
-6 -9 -3 2 -8 -10 -10 -9
-4 -7 -2 4 -7 -9 -10 -9
-3 -5 0 5 -6 -8 -9 -8
-5 -6 2 7 -4 -6 -8 -8
-6 -8 3 8 -4 -7 -8 -8
-6 -9 4 9 -3 -7 -9 -8
-5 -10 4 11 -3 -6 -8 -9
-4 -11 5 13 -2 -5 -8 -9
-3 -11 5 14 0 -4 -7 -8
-3 -10 4 14 1 -4 -7 -8
-3 -9 3 14 1 -5 -7 -8
-4 -9 4 16 3 -3 -6 -6
-5 -8 5 17 4 0 -5 -5
-5 -7 6 17 5 0 -4 -6
-5 -8 8 19 6 1 -3 -6
-5 -9 10 20 5 0 -4 -6
-5 -9 10 21 7 1 -4 -6
-4 -10 10 22 8 1 -4 -7
-4 -12 10 23 9 2 -4 -6
-4 -11 9 23 9 2 -5 -6
-3 -9 9 24 9 2 -4 -6
-2 -8 10 25 10 2 -3 -6
-4 -10 10 25 10 2 -4 -6
-5 -12 10 26 10 2 -4 -7
-4 -10 12 27 11 3 -4 -7
-4 -9 14 30 13 5 -3 -6
-5 -10 14 30 13 5 -3 -7
-4 -11 14 30 12 4 -3 -9
-2 -10 13 31 13 4 -4 -9
-2 -9 13 32 14 4 -4 -8
-2 -9 13 33 14 4 -4 -7
-2 -9 14 34 15 5 -3 -6
-2 -9 14 35 16 6 -2 -5
-2 -8 15 36 17 7 0 -4
-2 -8 17 39 19 9 2 -3
-2 -8 19 42 21 10 3 -2
-3 -9 17 42 21 10 2 -2
0 -9 16 43 21 10 2 -3
2 -8 16 44 23 11 3 -2
3 -7 16 45 24 11 3 -2
2 -7 16 45 24 11 3 0
1 -7 16 46 24 12 3 1
-2 -7 16 47 25 12 3 0
-2 -7 18 49 27 13 4 -2
0 -6 20 52 29 15 5 0
1 -7 22 54 30 15 6 1
2 -7 21 55 30 15 5 1
3 -6 21 57 30 15 6 1
4 -6 21 58 29 15 5 2
3 -6 21 59 30 16 6 3
1 -6 19 59 30 16 5 1
1 -5 20 61 32 17 6 2
2 -4 22 63 34 18 7 4
3 -3 24 66 36 20 9 6
3 -2 25 67 37 21 9 6
3 -3 27 70 40 23 11 7
3 -3 28 71 42 23 11 7
3 -4 27 73 43 23 11 6
3 -4 27 75 44 23 12 7
6 -2 26 75 45 23 12 8
9 2 26 77 45 24 13 9
8 2 27 80 47 26 15 11
5 0 28 81 47 26 15 11
3 1 29 84 50 28 17 11
4 2 30 87 51 28 17 11
5 3 31 89 52 28 17 11
5 2 33 92 53 30 18 12
8 3 31 92 53 30 17 12
10 5 32 95 54 30 19 13
9 5 31 96 56 31 19 13
7 5 30 98 56 32 19 14
7 6 31 99 57 33 20 15
8 6 31 100 58 33 20 16
8 7 32 102 59 34 21 17
10 8 33 104 60 34 21 17
13 9 36 106 61 36 22 18
15 10 37 107 62 37 23 19
15 10 35 108 61 35 23 19
15 9 34 108 60 33 22 18
15 10 34 108 61 33 22 19
15 11 33 108 60 32 21 18
14 12 33 109 60 32 21 19
16 13 34 109 59 31 21 19
15 13 36 111 60 32 22 19
14 12 36 110 59 31 21 18
13 11 38 110 58 30 21 19
13 10 38 110 58 29 21 19
13 10 37 110 57 28 20 19
14 10 37 109 56 27 20 19
15 11 36 108 53 25 19 18
16 11 36 107 52 24 18 19
16 11 35 106 50 22 17 19
14 11 34 105 49 22 16 18
12 10 34 103 47 21 14 16
14 9 33 101 45 19 13 15
17 11 35 101 45 19 14 16
16 11 35 100 43 17 13 15
13 9 34 97 40 15 10 13
13 7 33 94 37 12 8 11
14 8 33 93 37 11 8 12
14 9 31 91 34 9 7 12
13 8 29 89 33 7 6 12
11 8 30 88 31 6 5 12
10 8 30 85 29 5 4 10
12 8 29 82 27 3 3 9
14 8 30 80 26 3 3 9
15 8 29 78 24 2 2 8
14 7 29 76 24 2 3 8
12 6 29 74 24 2 3 9
11 6 28 72 23 1 3 8
12 7 27 70 21 0 2 8
13 7 24 66 19 -2 0 6
11 5 24 64 18 -2 0 6
6 3 25 63 18 -2 0 6
6 4 26 62 18 0 1 6
7 4 26 60 18 -2 0 5
6 4 26 59 18 0 1 4
7 3 26 57 18 1 1 4
7 2 25 55 18 1 1 3
6 1 25 53 18 2 2 3
5 1 23 50 17 1 1 3
6 3 22 47 16 1 1 3
6 3 21 45 16 2 1 3
4 2 20 42 17 3 2 3
3 2 21 40 16 3 1 2
5 3 20 37 16 4 1 2
4 1 19 35 15 4 1 2
2 -3 18 32 14 3 0 0
1 -4 17 30 14 4 1 0
1 -2 17 29 14 5 1 1
2 0 16 26 13 4 0 0
1 1 15 24 13 4 0 -2
1 1 14 23 12 4 1 0
0 0 13 21 11 4 2 1
-4 -5 12 19 9 3 1 0
-5 -6 13 17 9 3 1 0
-3 -5 13 16 9 4 1 0
-2 -4 12 15 8 4 1 0
-4 -4 13 15 9 5 3 1
-4 -4 11 13 8 4 2 0
-4 -4 10 11 7 4 2 -2
-5 -4 10 10 6 3 2 -2
-5 -4 10 9 6 3 1 -3
-6 -4 11 9 7 4 2 -2
-6 -4 12 8 7 5 2 -3
-6 -4 13 8 7 5 2 -2
-6 -4 12 8 6 5 2 -2
-6 -5 10 6 5 4 1 -3
-7 -6 9 5 4 3 0 -3
-8 -7 9 3 3 3 -2 -4
-7 -5 8 3 4 3 -2 -3
-3 -2 9 4 5 3 0 -3
-2 -2 9 4 5 3 0 -2
-6 -2 8 5 5 3 1 -3
-7 -2 9 5 4 3 1 -3
-7 -3 10 6 4 3 2 -2
-7 -4 10 6 4 3 1 -3
-5 -3 11 6 5 4 2 -3
-3 0 11 6 5 5 2 -2
-5 -2 10 6 5 5 1 -2
-7 -5 8 5 4 4 1 -3
-7 -4 9 5 5 4 1 -2
-7 -3 10 6 6 5 2 0
-6 -3 8 5 5 4 1 -3
-6 -4 8 5 6 5 2 -4
-7 -4 9 6 6 5 2 -3
-5 -2 10 8 8 7 3 0
-5 -2 10 8 8 7 4 0
-7 -4 10 7 7 6 3 -3
-7 -4 11 8 7 6 3 -3
-6 -2 11 8 8 6 3 -2
-5 0 10 8 8 6 3 0
-5 0 10 8 9 6 3 0
-5 0 10 9 9 7 4 0
-6 -2 11 10 10 8 4 1
-6 -3 11 10 10 7 4 1
-6 -3 11 11 10 7 4 1
-6 -3 11 11 11 8 4 1
-7 -3 12 12 12 9 5 2
-6 -3 10 11 11 9 4 1
-5 -3 10 11 11 9 5 1
-5 -2 11 13 12 10 6 2
-3 1 11 13 13 10 6 3
-4 0 12 14 14 11 7 3
-7 -2 11 13 13 10 5 1
-7 -3 13 14 14 12 6 1
-5 0 13 14 14 12 6 1
-4 2 13 14 15 12 7 0
-5 1 12 14 15 10 6 0
-7 -2 10 13 13 8 5 -2
-7 -2 10 13 13 9 5 0
-7 1 11 15 15 11 6 1
-6 0 12 15 16 11 6 2
-6 -2 13 14 16 11 6 2
-6 -2 12 15 17 12 8 2
-6 -2 12 16 18 13 9 3
-6 -2 11 16 17 14 9 3
-4 -2 10 15 16 13 8 3
-4 -2 10 15 15 12 8 3
-4 -2 10 14 14 12 7 3
-5 1 10 14 16 13 7 3
-4 2 9 13 16 12 6 2
-6 0 10 14 16 14 8 3
-8 -2 10 14 16 14 8 3
-7 -2 10 14 16 14 8 3
-5 0 11 14 17 14 7 3
-6 -2 10 14 16 13 7 2
-9 -4 10 15 17 13 8 3
-8 -4 10 14 17 13 8 2
-4 -2 10 13 16 12 8 1
-3 -2 9 12 15 11 7 0
-6 -3 8 12 14 11 6 0
-7 0 10 13 16 12 7 1
-5 1 10 13 16 12 7 1
-5 0 10 12 15 11 7 0
-6 -2 10 12 14 11 7 0
-7 -2 10 11 13 11 7 0
-6 -2 10 10 14 11 7 -2
-6 -2 10 10 14 11 6 0
-7 -2 9 8 13 10 5 -2
-7 -3 9 8 12 9 4 -2
-7 -3 9 9 12 10 5 -2
-6 -3 8 8 11 10 5 0
-4 -3 8 8 11 10 5 1
-3 -3 8 7 10 9 4 -2
-5 -4 8 7 10 8 4 -2
-6 -5 8 7 10 8 3 -2
-5 -5 7 7 11 8 3 -3
-4 -5 6 5 10 7 2 -4
-5 -5 6 6 10 8 4 -2
-6 -4 7 6 10 8 4 0
-6 -3 7 5 9 7 3 -2
-5 -3 7 5 10 8 4 -2
-6 -4 7 5 10 8 5 0
-7 -5 6 4 8 7 3 -2
-7 -6 7 4 8 7 3 -2
-6 -7 7 3 8 7 3 -3
-6 -7 6 2 8 7 3 -3
-7 -6 6 2 8 7 3 -3
-6 -6 5 1 7 6 2 -4
-8 -6 6 1 7 6 2 -3
-9 -6 5 0 5 5 1 -4
-7 -4 5 0 6 5 2 -3
-5 -3 5 0 6 5 2 -3
-9 -5 6 1 6 5 2 -3
-10 -8 5 0 5 4 1 -4
-8 -8 6 1 6 4 2 -4
-6 -7 6 0 5 3 2 -5
-7 -7 6 0 5 3 1 -5
-8 -7 6 -2 4 3 0 -6
-8 -7 5 -3 3 3 -2 -6
-8 -6 4 -3 3 3 -3 -6
-8 -6 3 -3 3 3 -3 -5
-8 -5 3 -3 3 3 -2 -5
-7 -5 3 -4 2 2 -3 -6
-7 -5 4 -4 2 2 -2 -6
-6 -5 4 -4 2 2 -3 -6
-6 -6 3 -5 2 1 -3 -7
-7 -6 3 -5 2 1 -2 -6
-8 -6 3 -5 2 0 -2 -6
-8 -6 3 -5 2 0 -3 -6
-7 -6 3 -5 2 1 -2 -6
-7 -6 3 -5 1 1 -2 -7
-9 -7 3 -5 1 2 -3 -6
-8 -7 3 -6 1 1 -3 -7
-7 -7 4 -5 1 1 -3 -7
-8 -7 4 -6 1 1 -3 -7
-9 -8 4 -6 1 1 -3 -7
-8 -7 3 -7 0 0 -4 -8
-7 -7 3 -7 0 0 -3 -7
-7 -6 3 -6 0 0 -3 -6
-8 -6 2 -7 0 -2 -3 -7
-9 -6 2 -7 -2 -2 -4 -7
-8 -6 3 -8 -2 0 -4 -6
-7 -6 3 -7 -2 0 -3 -6
-8 -7 3 -8 -2 0 -4 -7
-9 -9 3 -8 -2 0 -4 -8
-8 -8 3 -8 0 -2 -5 -8
-7 -7 2 -9 0 -3 -5 -8
-6 -6 2 -9 0 -3 -5 -8
-7 -6 3 -7 1 0 -3 -7
-9 -7 3 -8 0 -2 -3 -7
-9 -8 2 -9 -2 -3 -5 -8
-5 -6 2 -9 -2 -2 -5 -8
-2 -5 4 -8 0 0 -3 -7
-4 -6 4 -7 -2 -2 -3 -7
-8 -9 2 -8 -2 -3 -3 -7
-9 -11 2 -9 -2 -2 -4 -7
-9 -11 2 -9 -2 -2 -5 -8
-9 -10 2 -9 -2 -2 -5 -9
-8 -8 1 -9 -3 -3 -5 -9
-7 -6 2 -9 -2 -2 -4 -8
-7 -5 2 -9 -2 -2 -5 -7
-7 -4 2 -8 0 -2 -4 -6
-6 -2 4 -7 0 -2 -3 -7
-6 -4 4 -7 0 -2 -3 -7
-7 -5 3 -8 0 -2 -4 -8
-6 -2 4 -8 1 -2 -3 -8
-5 2 5 -6 2 0 -2 -7
-5 2 6 -6 2 0 -2 -6
-6 2 7 -6 2 1 -3 -6
-6 3 8 -5 4 3 0 -5
-6 4 8 -5 4 3 0 -5
-6 4 8 -5 3 2 0 -5
-6 3 10 -4 4 3 0 -4
-7 2 11 -4 5 3 0 -5
-6 3 13 -2 6 5 2 -3
-4 5 12 -2 6 5 2 -4
-3 7 12 0 7 6 2 -4
-3 8 13 1 8 7 3 -2
-3 10 12 2 9 8 5 0
-2 13 11 3 11 9 7 2
0 16 11 4 13 10 9 4
1 19 10 4 14 12 11 6
3 21 9 4 14 13 11 7
4 19 7 3 13 12 10 7
5 17 6 2 13 12 10 7
6 13 3 1 11 11 10 6
6 10 0 -3 8 8 8 4
5 6 -4 -6 5 5 5 1
4 5 -4 -6 5 4 5 0
4 6 -5 -7 4 4 5 1
4 6 -7 -9 3 4 4 1
4 6 -8 -10 2 3 3 0
5 6 -7 -9 2 2 3 1
5 7 -7 -10 3 3 3 1
5 8 -7 -11 2 3 3 1
3 10 -5 -11 2 4 5 3
1 12 -4 -11 2 4 6 3
-2 10 -6 -13 0 3 4 2
-4 7 -7 -15 -3 1 3 1
-4 6 -7 -16 -4 -3 1 -2
-5 3 -5 -16 -5 -4 -2 -5
-7 0 -3 -15 -6 -5 -3 -7
-8 -3 -2 -14 -5 -5 -4 -6
-8 -6 -2 -14 -4 -6 -4 -6
-8 -8 -3 -15 -7 -7 -5 -7
-8 -11 -5 -17 -8 -8 -7 -10
-8 -12 -5 -18 -10 -10 -9 -12
-8 -12 -6 -20 -11 -11 -10 -13
-9 -13 -7 -21 -12 -12 -11 -13
-8 -12 -7 -21 -11 -12 -11 -13
-7 -11 -6 -20 -11 -11 -11 -14
-6 -11 -6 -21 -11 -11 -11 -13
-8 -13 -6 -21 -12 -11 -11 -13
-8 -13 -6 -20 -11 -12 -11 -13
-8 -12 -5 -19 -10 -10 -10 -12
-8 -11 -6 -18 -9 -9 -9 -12
-9 -12 -7 -19 -9 -9 -10 -13
-9 -12 -7 -19 -10 -9 -10 -13
-9 -11 -5 -18 -10 -8 -10 -12
-7 -9 -5 -17 -9 -9 -10 -12
-7 -9 -5 -18 -9 -9 -10 -13
-9 -12 -6 -18 -10 -10 -10 -13
-9 -12 -5 -18 -10 -10 -10 -13
-8 -12 -5 -18 -9 -9 -9 -12
-8 -12 -5 -18 -9 -9 -10 -14
-9 -12 -6 -19 -10 -10 -11 -15
-9 -11 -6 -18 -10 -9 -10 -14
-9 -11 -5 -18 -9 -9 -10 -13
-10 -12 -6 -18 -10 -10 -11 -14
-11 -12 -6 -19 -11 -11 -12 -15
-10 -12 -6 -19 -10 -11 -11 -15
-9 -12 -5 -19 -10 -11 -10 -15
-8 -11 -4 -18 -10 -11 -10 -14
-7 -11 -5 -19 -10 -11 -11 -14
-9 -11 -5 -18 -9 -10 -10 -13
-10 -11 -6 -18 -10 -10 -10 -13
-10 -11 -5 -18 -9 -10 -10 -13
-8 -11 -5 -18 -8 -9 -10 -13
-6 -10 -6 -19 -9 -10 -11 -14
-7 -11 -6 -19 -10 -11 -11 -15
-9 -12 -5 -18 -9 -11 -11 -15
-9 -13 -5 -16 -10 -12 -12 -17
-10 -13 0 -12 -8 -12 -13 -18
-11 -12 4 -6 -5 -11 -14 -19
-12 -14 9 2 2 -9 -14 -19
-12 -15 14 13 11 -4 -13 -19
-10 -13 16 24 21 4 -10 -19
-9 -10 21 39 38 17 0 -12
-8 -6 28 58 59 34 12 -6
-6 2 37 82 89 61 30 7
0 11 45 105 122 94 53 21
5 19 52 129 162 132 78 37
10 22 60 151 203 171 103 51
15 25 68 170 242 211 129 65
23 33 71 178 275 246 154 82
33 47 65 173 295 273 179 102
42 54 44 142 284 276 191 115
49 57 8 86 234 243 183 119
57 61 -39 -3 139 172 155 115
60 65 -92 -132 2 67 108 104
52 58 -139 -283 -147 -49 49 79
38 35 -181 -422 -283 -157 -20 42
31 8 -226 -536 -398 -252 -81 4
32 -10 -266 -607 -469 -306 -116 -16
36 -16 -284 -613 -479 -314 -126 -20
37 -19 -286 -585 -462 -305 -127 -20
35 -17 -284 -556 -444 -296 -127 -20
27 -6 -272 -520 -416 -279 -120 -18
15 12 -247 -466 -370 -249 -106 -12
4 27 -223 -410 -322 -217 -88 -3
-2 32 -205 -367 -288 -192 -75 3
-2 30 -194 -333 -262 -176 -71 -2
-3 28 -180 -297 -231 -156 -65 -4
-3 28 -165 -262 -203 -137 -58 -4
-5 25 -149 -230 -179 -120 -52 -4
-5 21 -134 -201 -157 -106 -48 -7
-2 19 -114 -170 -133 -91 -40 -8
0 18 -92 -137 -107 -73 -32 -7
-2 14 -70 -106 -83 -58 -25 -6
-3 9 -55 -83 -66 -46 -21 -6
-2 5 -44 -66 -54 -38 -19 -8
0 2 -35 -52 -44 -33 -18 -9
-3 -2 -25 -39 -32 -26 -14 -7
-5 -3 -18 -29 -26 -21 -11 -6
-5 -4 -13 -23 -22 -19 -12 -8
-5 -5 -10 -20 -19 -18 -12 -9
-4 -7 -9 -18 -18 -18 -12 -10
-4 -7 -8 -16 -16 -17 -12 -10
-4 -7 -6 -14 -15 -16 -12 -12
-5 -8 -5 -11 -14 -15 -12 -12
-6 -9 -5 -10 -13 -15 -12 -12
-6 -9 -5 -8 -12 -15 -12 -12
-4 -9 -4 -6 -11 -14 -12 -12
-2 -8 -3 -5 -10 -13 -12 -12
0 -8 -3 -4 -10 -13 -13 -14
-4 -9 1 0 -8 -12 -12 -13
-6 -11 2 2 -6 -11 -11 -12
-4 -10 3 3 -6 -10 -11 -12
-3 -9 4 4 -4 -10 -11 -12
-4 -10 3 4 -4 -10 -11 -12
-6 -12 2 5 -4 -10 -11 -13
-5 -12 2 7 -4 -9 -11 -13
-3 -11 3 8 -3 -9 -9 -10
-2 -10 5 9 -2 -8 -8 -10
-3 -10 7 11 1 -7 -7 -10
-5 -11 8 13 3 -5 -7 -10
-4 -11 8 13 3 -5 -7 -9
-3 -10 9 14 4 -4 -7 -9
-3 -10 10 15 4 -4 -7 -10
-4 -11 9 15 3 -5 -7 -10
-4 -12 9 16 4 -5 -7 -9
-4 -12 8 16 3 -6 -7 -10
-4 -11 7 15 2 -7 -7 -10
-4 -10 8 17 4 -5 -6 -9
-3 -10 10 19 6 -3 -6 -8
-2 -10 10 19 6 -4 -6 -10
-3 -11 12 20 7 -3 -6 -9
-3 -11 12 21 9 -2 -6 -10
0 -9 13 23 10 0 -5 -9
1 -8 12 24 10 1 -5 -8
-2 -9 12 25 10 0 -5 -8
-4 -11 12 25 10 -2 -6 -9
-3 -11 12 25 10 -3 -6 -10
-2 -10 12 27 11 0 -5 -9
1 -8 15 29 13 2 -4 -7
2 -6 15 29 13 2 -4 -7
2 -7 16 30 14 2 -4 -8
2 -7 16 32 14 2 -3 -8
1 -7 19 35 16 4 -2 -6
1 -8 18 35 16 4 -2 -6
0 -9 17 35 17 4 -2 -7
0 -10 16 36 18 4 -3 -7
2 -8 16 38 20 5 -2 -6
2 -7 16 39 19 5 0 -6
1 -7 18 42 20 6 0 -4
0 -6 20 44 22 7 1 -4
1 -6 20 45 22 8 2 -5
0 -8 20 46 23 9 2 -4
-2 -9 21 48 25 9 2 -3
1 -6 21 50 26 9 2 -2
3 -4 21 52 27 10 4 0
3 -5 19 52 27 10 3 -2
2 -7 19 52 27 10 3 -3
3 -5 21 54 28 10 4 -2
4 -4 24 57 30 13 5 1
2 -3 24 59 32 14 5 0
3 -3 25 60 33 15 7 0
4 -2 26 62 34 16 7 1
6 0 26 64 34 17 7 2
7 0 27 66 35 18 8 3
7 0 26 68 36 18 9 3
6 0 26 69 37 18 9 3
5 0 27 71 38 18 9 3
6 0 28 72 39 19 9 4
8 1 28 74 40 19 9 5
8 2 30 77 42 21 11 6
7 3 31 79 44 21 11 6
6 3 31 81 45 22 12 6
7 3 31 84 47 22 12 7
8 3 30 85 47 22 12 7
9 4 32 87 49 24 13 8
11 7 33 89 51 25 15 10
13 9 34 92 52 26 17 12
11 8 35 94 52 27 17 13
8 6 35 95 53 28 16 13
8 8 35 97 53 28 17 13
10 10 36 98 53 29 18 13
12 11 38 101 55 30 19 14
12 10 37 102 56 30 19 14
10 8 36 102 56 29 18 14
11 9 35 103 56 28 18 14
12 9 36 105 57 28 20 15
12 10 36 105 57 28 20 14
12 11 36 105 55 27 18 14
13 12 38 107 56 28 19 15
14 13 38 107 55 27 19 15
14 12 38 107 54 26 18 14
14 12 38 107 53 25 17 14
14 12 39 107 53 25 17 14
15 13 39 108 53 25 17 15
15 14 38 106 51 23 16 14
16 13 37 105 49 21 14 13
18 13 37 104 47 20 14 13
17 14 38 104 47 20 13 13
15 14 38 103 46 18 13 13
14 14 39 103 45 18 13 13
15 13 39 102 43 17 12 12
14 12 38 100 40 15 10 11
12 11 37 98 39 13 8 10
14 11 35 96 37 10 8 10
15 12 35 94 35 8 6 8
14 12 34 92 32 5 4 8
14 11 34 90 31 4 4 8
13 11 34 89 29 4 3 8
12 10 33 88 28 3 3 8
12 10 33 86 26 2 1 7
14 11 34 85 26 1 2 7
15 12 33 82 24 0 1 6
12 9 32 79 23 -2 -2 5
11 7 31 77 22 -3 -2 4
14 8 31 76 21 -4 -2 4
14 9 30 73 18 -6 -3 3
11 6 28 70 17 -6 -5 1
11 6 27 67 16 -7 -5 1
14 9 27 66 15 -7 -5 1
12 9 29 64 15 -7 -5 1
8 5 29 62 14 -7 -5 0
6 4 29 60 14 -7 -5 0
8 5 28 59 14 -5 -5 -2
9 5 26 56 13 -6 -6 -3
10 4 25 53 13 -5 -6 -3
11 6 24 49 13 -5 -5 -3
11 7 23 46 12 -4 -4 -2
8 5 22 44 11 -5 -4 -2
5 2 21 42 11 -5 -5 -3
5 2 21 40 11 -4 -5 -2
5 3 21 37 12 -3 -5 -2
4 2 21 36 12 0 -4 -2
3 1 21 33 12 0 -3 -2
2 1 19 31 12 0 -3 -3
2 1 18 28 11 0 -3 -3
2 2 17 26 10 1 -3 -3
2 2 15 23 9 1 -3 -3
2 0 12 20 7 -2 -5 -5
1 0 12 20 8 0 -4 -5
2 1 13 18 7 0 -3 -5
1 1 13 16 6 0 -3 -6
-2 0 12 15 5 0 -4 -6
0 0 11 13 5 0 -4 -6
1 0 11 12 5 0 -3 -6
2 1 10 11 5 0 -3 -6
2 1 10 10 4 1 -3 -6
-2 0 9 7 3 0 -3 -6
-3 -3 8 6 3 0 -3 -7
-2 -2 9 7 4 1 -2 -6
-2 -2 9 5 3 1 -2 -6
-3 -3 9 4 2 0 -3 -7
-2 -3 8 4 2 -2 -3 -7
0 -4 8 3 1 -2 -4 -7
-2 -4 7 2 0 -2 -5 -6
-4 -3 9 3 1 1 -3 -5
-3 -3 8 1 0 0 -4 -6
-3 -3 6 0 -2 0 -5 -6
-3 -4 5 1 -2 0 -4 -5
-4 -3 6 1 1 1 -3 -5
-5 -3 7 2 1 2 -2 -4
-5 -3 8 2 1 2 -2 -4
-4 -3 8 3 2 2 -2 -4
-3 -2 7 2 1 1 -3 -5
-3 -2 6 1 0 1 -3 -6
-3 -3 5 0 -2 0 -4 -6
-2 -2 5 0 -2 0 -4 -7
-2 0 5 0 0 1 -3 -6
-2 0 5 1 1 2 -2 -5
-2 0 5 2 1 2 -2 -5
-2 0 5 2 1 2 -3 -5
0 1 6 2 1 2 -3 -5
0 1 6 3 2 3 0 -4
0 1 6 3 2 3 0 -4
-2 1 5 2 1 2 -2 -5
-3 0 6 3 1 3 0 -4
-3 0 6 3 1 4 0 -3
-2 0 5 3 1 4 0 -4
-2 1 6 3 2 4 1 -4
-2 1 7 4 2 5 2 -3
-3 2 8 5 3 5 2 -3
-2 2 8 5 4 5 2 -4
-2 2 8 6 4 5 2 -4
-2 2 8 6 5 5 2 -4
-3 2 7 5 5 5 3 -3
-3 3 7 5 6 5 3 -2
-3 3 7 6 6 6 3 -2
-3 3 7 7 6 6 2 -2
-3 3 7 7 6 6 2 -2
-3 2 7 7 7 6 3 -2
-3 1 6 7 8 6 2 -2
-3 1 6 7 8 6 2 -3
-2 1 7 7 9 6 2 -3
-2 1 8 8 10 7 2 -3
-2 1 8 9 10 7 2 -3
-3 1 7 9 10 7 2 -3
-3 1 7 9 10 7 2 -4
-2 0 6 8 10 7 2 -4
-2 0 5 8 10 8 3 -3
-2 2 7 10 12 9 4 0
0 3 8 10 12 9 5 0
0 2 8 9 12 9 5 -2
-2 1 8 10 12 9 4 -3
-2 2 7 11 13 10 4 -2
-2 2 6 11 14 10 5 0
-2 2 5 10 13 10 5 0
-3 2 5 10 13 10 4 -2
-2 2 6 10 13 10 5 0
0 2 6 9 12 9 4 -2
0 2 5 9 12 9 4 -2
-3 2 6 9 13 10 4 -2
-3 2 7 9 13 10 4 -2
-3 2 7 9 14 10 5 -2
-4 1 8 11 14 11 6 1
-3 1 6 9 12 10 5 0
0 2 6 8 12 9 4 -2
1 2 6 8 12 10 5 -2
2 2 6 8 12 10 5 -2
1 2 6 8 12 10 5 -2
0 2 5 8 11 9 4 -2
-2 1 6 7 11 8 3 -2
-4 1 6 7 11 8 3 0
-3 1 5 7 11 8 2 -2
-3 0 6 7 12 9 3 -2
-4 -2 5 6 10 8 2 -3
-4 -2 3 5 9 7 1 -4
-2 0 2 4 8 5 0 -5
0 0 3 5 10 7 2 -3
0 1 4 5 10 8 2 -2
-2 0 3 5 9 7 1 -3
-3 0 4 5 9 7 2 -3
-4 -2 4 4 9 6 1 -4
-4 -2 4 4 9 7 2 -3
-3 -2 5 4 8 7 3 -3
-3 -2 4 3 8 6 2 -4
-3 -3 2 2 7 5 1 -5
-4 -3 3 2 7 5 1 -4
-3 -3 2 1 6 6 1 -4
-2 -2 2 2 6 6 1 -4
-3 -3 2 1 5 5 1 -4
-4 -3 3 2 6 5 1 -4
-2 -2 3 1 6 5 1 -4
0 0 3 1 6 6 0 -4
-2 -2 2 1 6 5 0 -5
-2 -3 0 -2 5 3 -2 -7
-2 -4 0 -3 4 3 -2 -7
-2 -3 1 -2 5 4 0 -5
-2 -3 1 -2 4 4 0 -5
-4 -3 1 -2 4 4 1 -5
-5 -4 0 -2 4 3 0 -5
-4 -4 0 -3 3 3 0 -5
-2 -4 -2 -5 2 2 -3 -7
-2 -5 0 -5 2 2 -3 -6
-4 -5 -2 -5 2 2 -3 -6
-3 -3 0 -4 2 3 -3 -5
-2 -2 1 -4 3 4 -3 -5
-3 -4 0 -5 2 3 -3 -5
-5 -4 0 -5 2 3 -3 -5
-4 -5 1 -5 2 3 -3 -5
-4 -5 0 -5 1 3 -4 -6
-5 -5 0 -4 2 3 -3 -5
-4 -4 0 -4 1 3 -3 -6
-2 -4 1 -5 1 2 -4 -7
-2 -5 0 -5 1 1 -5 -8
-4 -7 -2 -6 0 0 -5 -9
-4 -6 -2 -6 0 0 -4 -8
-4 -5 -3 -6 0 0 -4 -8
-3 -5 -3 -6 0 0 -5 -8
-4 -6 -2 -6 0 1 -5 -8
-4 -6 -2 -7 0 1 -5 -8
-5 -6 -2 -7 -2 1 -4 -8
-5 -5 0 -7 -2 1 -4 -7
-4 -5 -2 -8 -3 0 -5 -8
-4 -5 -2 -8 -3 0 -5 -8
-5 -6 -2 -8 -3 0 -4 -8
-5 -6 -2 -8 -3 0 -4 -7
-4 -5 -4 -9 -3 -2 -5 -8
-3 -5 -3 -7 0 0 -5 -7
-3 -6 -3 -8 -3 -2 -5 -8
-5 -8 -3 -7 -3 0 -4 -8
-5 -7 -3 -9 -4 -2 -6 -9
-3 -6 -3 -9 -3 -2 -5 -8
-2 -6 -2 -8 -2 0 -4 -7
-4 -7 -2 -8 -2 0 -4 -7
-5 -8 -3 -8 -3 0 -5 -7
-3 -7 -2 -8 -3 0 -5 -7
-3 -6 -2 -8 -4 0 -5 -8
-3 -7 -3 -8 -3 0 -5 -7
-3 -8 -3 -9 -4 -2 -6 -7
-3 -8 -3 -9 -5 -2 -6 -7
-4 -7 -4 -9 -5 -2 -6 -7
-6 -7 -3 -8 -4 0 -5 -7
-5 -6 -3 -9 -4 -2 -6 -8
-4 -6 -2 -9 -3 -2 -6 -8
-4 -7 -3 -10 -4 -2 -6 -9
-5 -8 -3 -9 -5 -2 -6 -9
-6 -8 -4 -10 -6 -3 -7 -10
-6 -8 -4 -10 -5 -3 -6 -9
-5 -8 -3 -10 -4 -2 -5 -8
-3 -7 -3 -10 -4 0 -6 -7
0 -6 -4 -10 -4 0 -6 -8
-3 -6 -4 -10 -4 0 -6 -8
-4 -6 -2 -8 -2 2 -4 -6
-2 -4 -2 -8 -2 2 -4 -7
1 -3 -2 -8 -2 2 -4 -6
0 -2 -2 -8 -2 2 -4 -6
-3 -3 0 -8 -2 2 -4 -7
-5 -4 0 -8 -3 3 -3 -6
-3 -2 0 -6 -2 4 -2 -5
-2 1 2 -5 1 5 0 -4
0 2 3 -4 1 5 1 -4
-2 2 5 -3 2 6 3 -3
-4 1 5 -3 3 6 3 -2
-4 1 6 -4 2 5 2 -2
-3 2 7 -3 2 5 1 -3
-2 3 7 -2 3 6 1 -3
-2 4 8 0 4 6 2 -2
-2 3 6 -2 3 5 1 -3
0 4 7 1 4 7 2 0
1 6 9 2 6 9 3 2
2 6 9 3 8 10 4 2
2 8 10 5 10 12 6 3
3 11 9 6 11 13 7 5
4 14 10 6 14 16 10 7
7 17 8 6 15 17 11 9
9 19 6 6 15 18 13 10
8 17 4 5 12 18 13 10
7 12 1 3 10 15 10 8
6 6 -3 0 8 12 7 6
7 3 -4 -3 6 10 6 3
8 3 -7 -5 4 9 4 2
8 3 -8 -6 3 8 4 1
7 3 -8 -6 3 8 5 2
9 4 -9 -7 2 7 5 2
11 4 -10 -8 1 6 4 1
9 3 -10 -8 0 7 4 1
8 4 -11 -10 -2 6 3 1
8 6 -11 -12 -2 5 3 1
8 7 -10 -12 -2 5 4 2
6 9 -9 -12 -2 6 4 3
4 9 -8 -12 -2 6 5 4
2 7 -7 -12 -2 6 4 4
1 3 -5 -12 -3 6 3 3
-2 0 -5 -13 -5 4 1 0
-4 -4 -4 -11 -4 4 1 0
-4 -6 -3 -11 -5 4 0 -3
-4 -9 -5 -14 -7 1 -3 -5
-6 -12 -7 -17 -10 -3 -6 -8
-6 -14 -7 -17 -11 -4 -7 -9
-6 -15 -7 -18 -12 -5 -9 -10
-6 -15 -9 -18 -13 -7 -10 -12
-7 -16 -10 -19 -13 -8 -10 -12
-6 -16 -10 -19 -13 -8 -10 -12
-4 -16 -10 -18 -13 -7 -10 -12
-2 -14 -9 -18 -12 -6 -10 -11
0 -13 -9 -17 -12 -5 -9 -11
-2 -14 -8 -17 -11 -4 -9 -10
-5 -14 -8 -17 -10 -4 -9 -10
-7 -15 -9 -17 -11 -5 -10 -11
-7 -16 -9 -18 -11 -5 -10 -12
-4 -15 -8 -16 -9 -3 -9 -9
-2 -13 -7 -15 -9 -3 -8 -9
-3 -13 -6 -15 -9 -3 -8 -9
-5 -15 -7 -16 -10 -4 -9 -10
-7 -16 -8 -16 -11 -4 -10 -11
-7 -16 -7 -16 -12 -4 -9 -12
-7 -17 -7 -17 -12 -5 -9 -11
-6 -16 -8 -17 -11 -6 -10 -12
-5 -14 -6 -14 -9 -3 -8 -9
-6 -13 -6 -14 -9 -3 -8 -9
-7 -13 -6 -15 -10 -4 -9 -9
-6 -14 -6 -15 -10 -4 -9 -9
-5 -15 -5 -15 -10 -3 -9 -10
-5 -15 -5 -15 -10 -3 -9 -11
-5 -15 -5 -15 -10 -3 -8 -11
-5 -15 -5 -15 -10 -3 -8 -10
-5 -14 -5 -14 -9 -3 -7 -10
-4 -14 -7 -15 -9 -3 -8 -10
-4 -13 -6 -15 -9 -2 -8 -10
-4 -13 -6 -15 -9 -2 -8 -9
-4 -14 -6 -16 -9 -3 -8 -10
-5 -15 -5 -15 -9 -2 -8 -10
-5 -15 -5 -14 -9 -2 -8 -10
-5 -14 -4 -11 -8 -2 -8 -10
-5 -14 -2 -8 -7 -3 -8 -11
-6 -16 0 -6 -7 -4 -10 -13
-8 -18 3 -2 -4 -4 -13 -15
-9 -18 9 9 5 1 -12 -16
-9 -17 13 22 15 8 -9 -15
-6 -15 17 34 28 17 -4 -12
-4 -12 23 51 47 31 7 -7
-3 -6 32 73 71 53 21 2
1 3 43 99 103 82 43 16
5 10 48 120 140 116 65 30
9 14 53 142 178 153 89 44
15 17 61 164 217 191 112 58
24 24 68 179 254 229 139 74
32 33 68 182 280 262 165 93
38 44 57 167 287 278 184 109
49 49 30 125 260 266 186 118
58 52 -9 55 191 217 170 119
63 53 -57 -52 76 129 133 112
61 53 -109 -196 -68 18 81 95
50 42 -153 -344 -211 -93 19 65
36 16 -195 -472 -337 -195 -49 27
30 -9 -242 -572 -436 -275 -101 -4
33 -20 -276 -616 -479 -308 -122 -16
39 -23 -286 -601 -471 -305 -126 -17
42 -22 -285 -571 -452 -295 -127 -18
35 -17 -278 -539 -431 -282 -122 -16
24 -3 -259 -493 -394 -259 -110 -11
12 16 -231 -435 -345 -225 -92 -3
4 25 -210 -386 -302 -195 -76 5
1 24 -196 -348 -271 -174 -68 6
2 21 -186 -315 -244 -157 -65 1
3 22 -173 -278 -216 -139 -58 1
2 23 -157 -243 -189 -120 -50 2
1 21 -141 -214 -166 -104 -45 0
1 18 -123 -184 -144 -90 -39 -3
1 15 -103 -151 -119 -74 -33 -2
2 12 -80 -119 -96 -57 -26 -2
4 7 -60 -92 -74 -44 -20 -2
3 1 -46 -69 -58 -33 -17 -2
1 -5 -36 -54 -46 -26 -15 -3
1 -8 -28 -40 -34 -20 -11 -2
1 -8 -21 -29 -26 -14 -8 -2
1 -8 -15 -22 -21 -12 -7 -2
0 -9 -11 -18 -18 -10 -7 -3
-3 -11 -7 -14 -15 -8 -6 -4
-4 -11 -6 -11 -13 -7 -6 -4
-4 -11 -4 -8 -12 -6 -6 -5
-4 -12 0 -7 -9 -5 -5 -5
-3 -12 -2 -5 -9 -5 -6 -6
-2 -12 0 -3 -8 -5 -6 -6
-4 -12 0 0 -6 -3 -5 -5
-4 -12 1 2 -5 0 -4 -5
0 -10 2 4 -4 0 -4 -4
2 -10 3 5 -3 0 -4 -4
-2 -14 4 7 -2 0 -4 -5
-4 -18 4 6 -4 -2 -6 -7
-3 -17 7 10 0 1 -5 -5
-2 -15 7 11 2 2 -4 -4
-3 -16 9 13 3 3 -3 -3
-5 -16 9 14 3 3 -4 -3
-4 -15 9 14 4 4 -3 -2
-2 -14 8 14 5 4 -3 -2
1 -14 8 15 4 3 -4 -3
1 -14 9 16 5 4 -3 -3
1 -14 10 18 6 5 -2 -2
-2 -15 12 21 8 6 0 0
-3 -15 13 21 9 6 0 -3
0 -14 13 21 10 7 0 -4
1 -13 14 23 11 9 2 -3
0 -14 13 22 10 7 2 -4
-3 -15 12 22 10 7 1 -4
-2 -14 12 23 12 8 2 -3
0 -13 14 26 12 8 2 -3
-2 -13 14 27 12 8 2 -3
-2 -13 14 27 12 8 1 -4
-2 -14 17 30 14 10 3 -3
0 -14 17 30 14 10 3 -4
1 -15 16 29 15 10 2 -4
1 -15 17 30 16 10 2 -3
0 -15 19 33 17 11 4 -2
1 -14 17 32 17 11 3 -3
3 -13 16 31 16 11 2 -3
4 -12 17 35 18 12 4 0
4 -11 19 37 20 13 5 1
2 -13 18 36 19 12 3 -2
0 -16 18 37 20 11 2 -3
1 -13 21 42 22 13 4 0
5 -11 21 43 24 15 5 1
4 -13 21 43 23 14 5 1
2 -14 21 43 23 14 5 1
2 -13 20 44 24 14 5 2
2 -13 19 44 24 15 6 3
1 -12 19 47 26 16 7 3
2 -10 21 49 29 18 8 4
3 -9 23 52 31 19 10 5
4 -11 24 53 30 19 10 5
4 -12 24 53 29 18 9 2
4 -12 24 53 30 19 9 2
4 -12 25 56 31 20 10 3
4 -11 25 58 32 20 11 4
4 -11 25 59 32 21 11 5
4 -11 24 59 33 21 11 5
4 -11 25 62 34 22 12 6
4 -9 25 63 35 22 12 6
4 -7 28 66 38 25 14 8
5 -6 29 68 39 25 14 7
4 -5 29 70 42 26 14 8
6 -5 28 70 42 26 13 7
9 -5 28 71 42 26 14 7
9 -5 28 72 43 26 14 8
7 -5 29 74 44 27 15 10
6 -4 29 75 45 28 16 11
8 0 30 77 46 28 16 11
9 1 31 80 48 30 17 11
8 -2 31 82 50 30 18 12
9 0 32 85 50 31 19 13
11 2 34 88 52 32 20 13
10 1 34 89 52 32 19 12
10 0 35 91 53 32 20 14
12 1 36 94 54 33 21 15
11 1 35 94 53 33 20 15
10 0 34 94 53 32 21 15
11 1 33 96 53 32 21 15
13 3 35 99 56 35 22 18
13 4 36 100 57 35 22 18
13 4 37 102 58 35 23 19
12 4 38 104 60 37 24 20
13 4 39 105 60 37 23 19
14 6 39 107 60 37 24 20
15 7 39 109 61 37 25 21
15 7 39 109 60 37 25 22
15 7 38 108 60 37 24 22
15 8 38 109 60 36 24 22
16 9 40 111 61 36 24 22
16 9 42 111 61 36 25 23
16 10 40 110 60 35 24 22
16 10 40 111 60 34 24 22
16 10 40 110 59 34 24 22
16 9 40 109 58 33 24 22
15 7 40 108 56 31 23 21
16 7 38 106 54 29 21 20
17 7 37 105 52 27 19 20
17 7 37 104 49 25 18 19
18 9 38 104 49 25 18 20
19 12 39 104 48 25 18 20
18 11 38 103 47 23 16 19
17 9 38 101 44 20 14 17
17 8 38 99 43 19 14 17
16 8 37 97 40 17 12 16
15 6 37 96 38 16 12 15
16 7 35 93 36 14 10 14
17 9 34 91 34 12 9 13
17 10 33 89 32 10 8 13
15 9 33 87 31 8 7 12
13 7 32 85 29 6 6 10
15 7 33 84 29 6 5 10
17 8 34 84 28 7 6 10
15 6 34 80 27 7 5 9
12 3 33 78 25 5 4 8
14 3 31 75 22 2 2 8
16 4 30 73 21 1 1 8
15 4 30 71 22 2 3 9
14 4 29 70 21 1 2 9
13 3 29 68 21 2 3 9
12 3 27 65 19 2 2 7
11 2 28 64 19 2 2 7
11 2 28 62 18 2 1 6
11 2 27 58 18 2 1 5
9 2 26 56 17 2 1 4
9 2 26 54 17 2 2 4
10 2 26 52 17 3 2 5
9 1 25 49 17 4 3 5
9 1 24 47 18 4 4 6
9 1 23 45 18 6 4 6
9 1 22 42 17 7 4 6
9 0 22 40 17 7 4 5
9 2 21 37 16 6 4 4
7 1 19 34 15 6 3 3
4 -2 17 31 15 7 3 3
5 -3 16 29 14 6 3 2
5 -2 15 27 15 6 3 2
5 0 14 24 13 6 3 1
4 0 15 24 13 6 5 2
3 0 14 21 12 6 4 1
3 -2 12 19 10 6 3 0
3 -2 12 17 10 5 2 1
3 -2 12 15 10 5 2 1
2 -3 12 13 9 6 2 2
1 -4 11 13 9 7 4 2
0 -5 9 12 7 6 3 2
0 -7 8 10 7 5 2 2
0 -7 7 8 5 4 2 1
2 -5 8 7 6 5 3 1
3 -3 9 7 6 6 4 1
1 -4 9 6 6 6 4 1
-2 -5 9 6 6 5 3 1
-2 -5 9 7 6 5 3 1
-2 -5 8 5 6 5 3 1
-2 -5 7 3 5 5 2 1
0 -5 5 2 4 3 1 -2
2 -3 4 1 3 3 1 -2
2 -3 4 2 3 4 1 0
1 -4 5 2 3 4 2 1
-2 -4 5 1 4 4 2 0
-2 -3 7 2 5 5 3 1
-2 -3 7 2 5 5 3 1
-2 -3 7 2 5 5 3 1
-2 -3 7 2 5 5 3 0
-2 -4 7 3 5 5 3 -2
-2 -6 6 2 5 5 3 -2
-3 -5 5 0 4 5 3 -3
-2 -4 5 1 4 6 3 -3
0 -3 7 3 5 7 4 -2
-2 -2 7 3 5 7 4 -2
-3 -3 6 2 4 6 3 -2
-4 -3 7 3 5 7 3 0
-3 -2 7 3 5 8 4 1
0 0 7 3 6 9 5 3
2 2 7 5 8 9 6 4
4 2 7 6 8 9 6 4
3 2 6 4 7 8 6 4
0 0 4 3 7 8 7 4
-4 -2 4 3 7 7 6 3
-5 -2 5 5 8 9 7 5
-3 0 5 5 7 8 6 4
-2 0 6 5 7 8 5 4
-3 0 8 7 9 10 7 5
-4 0 8 7 9 10 7 5
-3 0 8 7 9 9 7 4
-2 -2 7 6 8 8 6 3
0 -3 5 6 7 8 5 2
0 0 5 5 8 8 5 3
1 2 6 6 9 9 6 3
-2 0 6 6 9 9 6 3
-3 -2 6 7 9 9 6 3
-2 1 7 8 10 10 7 3
0 2 7 9 11 10 8 4
0 2 6 8 10 10 7 3
-2 1 6 9 11 10 7 3
-2 1 5 9 11 10 6 2
0 1 6 9 11 10 7 3
1 1 5 8 11 10 6 2
1 2 6 8 11 10 6 2
0 2 5 9 11 10 6 1
-2 2 5 10 11 11 6 2
-3 2 6 10 12 11 6 3
-2 3 7 10 12 10 5 2
-2 3 7 8 12 11 6 3
-2 3 5 8 11 11 6 3
0 3 5 8 12 11 6 3
0 3 5 8 12 12 6 4
0 3 5 8 13 12 7 5
0 3 5 9 14 13 9 6
0 3 5 9 14 13 9 6
-2 2 6 9 13 13 8 6
-2 0 5 8 13 12 8 5
0 0 5 10 13 12 9 5
0 1 4 9 12 11 9 5
-2 1 4 8 12 11 8 5
0 3 5 8 13 12 9 5
0 5 5 7 13 12 9 4
-3 2 4 7 13 12 9 4
-3 -2 3 6 11 10 7 2
0 -2 2 4 9 10 6 1
1 0 2 5 10 11 6 2
1 1 2 5 9 10 5 1
0 1 3 5 10 11 7 2
0 0 3 4 9 10 6 1
0 0 3 4 9 10 6 1
0 1 2 4 9 9 6 1
1 1 1 2 8 8 5 1
1 1 0 1 7 7 5 1
0 1 1 2 8 7 5 1
-3 1 0 2 8 7 4 0
-3 2 1 2 8 8 4 1
0 4 3 3 9 9 6 3
1 4 2 2 7 7 5 2
-2 1 0 1 6 6 3 0
-4 0 0 0 6 6 2 0
-3 1 0 -2 5 6 2 1
-2 2 0 -2 5 6 3 2
0 2 -3 -4 4 4 2 0
-2 2 -2 -3 4 4 2 1
-2 2 0 -3 4 5 2 0
-2 2 1 -3 5 5 2 1
-2 2 2 -2 5 5 3 1
-3 1 1 -3 5 4 2 1
-3 0 1 -2 5 4 3 2
-4 -2 0 -3 3 4 3 2
-4 -2 -2 -4 3 4 3 2
-3 -3 -3 -5 3 4 2 1
-3 -3 -3 -7 2 3 1 0
-3 -2 -3 -7 1 3 1 -2
-3 0 -3 -6 2 4 1 -2
-3 1 -4 -7 2 3 0 -3
-3 1 -3 -7 2 3 1 -3
-3 1 -3 -8 1 3 0 -4
-3 1 -2 -8 1 2 0 -5
-2 0 -3 -8 1 1 0 -5
-2 -2 -2 -8 2 3 1 -3
-2 0 -3 -9 1 3 0 -2
-2 0 -3 -8 1 3 1 -2
-3 -2 -3 -8 1 4 2 0
-4 -3 -3 -8 2 4 3 0
-4 -3 -3 -9 1 3 2 -2
-5 -2 -3 -9 0 2 2 -3
-4 -2 -3 -10 -2 1 1 -4
-3 0 -3 -9 0 1 1 -4
-2 0 -4 -10 -3 -2 -2 -5
-5 -3 -3 -9 -2 0 0 -5
-5 -2 -3 -10 -2 0 -2 -5
-2 0 -5 -11 -3 0 -2 -5
0 1 -5 -10 -3 1 0 -4
-4 0 -4 -10 -2 1 0 -4
-6 0 -4 -10 -2 1 -2 -4
-4 0 -3 -10 -4 0 -3 -4
-3 0 0 -9 -4 -2 -2 -4
-4 -2 -3 -11 -5 -2 -4 -5
-6 -3 -3 -11 -4 -2 -4 -5
-5 -2 -2 -10 -2 0 -2 -4
-4 0 -3 -11 -3 -2 -3 -4
-4 -2 -5 -12 -5 -3 -5 -6
-3 -2 -5 -12 -5 -4 -5 -5
-2 0 -3 -12 -4 -3 -4 -5
-2 1 -3 -12 -4 -3 -4 -4
-5 -2 -3 -11 -3 -2 -2 -3
-7 -3 -3 -11 -4 -2 -2 -3
-5 -3 -4 -12 -4 -2 -2 -3
-4 -2 -5 -13 -4 -2 -2 -4
-4 -3 -4 -11 -2 0 -2 -4
-4 -2 -5 -12 -3 -2 -4 -5
-4 0 -5 -12 -3 -2 -3 -5
-4 0 -6 -12 -4 -2 -3 -5
-5 -2 -5 -12 -4 -2 -3 -5
-5 -3 -5 -13 -5 -3 -4 -6
-6 -3 -4 -13 -4 -2 -3 -5
-6 -2 -4 -13 -3 -2 -3 -5
-6 -2 -3 -13 -3 -2 -3 -5
-6 0 -3 -12 -3 -2 -3 -4
-6 -2 -3 -12 -4 -2 -3 -4
-7 -2 -5 -12 -4 -3 -3 -5
-5 -2 -5 -13 -3 -2 -3 -6
-3 -2 -5 -13 -4 -3 -3 -6
-3 -2 -4 -12 -4 -3 -3 -5
0 0 -4 -12 -5 -4 -3 -5
1 2 -2 -10 -3 -2 -2 -4
-3 3 0 -9 -2 1 1 -2
-7 0 -3 -10 -3 1 1 -3
-7 -2 -5 -13 -5 -3 -2 -4
-5 1 -4 -12 -4 -2 0 -3
-4 4 -2 -10 -3 0 1 -3
-3 4 -2 -10 -2 0 0 -3
-3 5 0 -9 1 2 2 1
-5 6 0 -9 2 3 3 1
-4 7 1 -8 3 5 4 1
0 10 3 -6 4 6 5 2
1 11 4 -6 4 5 4 2
-3 9 5 -6 4 5 5 1
-3 8 5 -6 3 3 3 0
-4 7 6 -6 3 3 3 1
-4 7 5 -6 4 3 4 1
0 10 6 -5 5 4 4 3
1 12 7 -4 6 6 6 5
0 12 8 -2 7 8 8 5
-2 12 8 0 8 9 9 6
0 14 8 1 9 11 10 8
3 19 9 3 12 14 13 10
5 23 8 4 15 16 15 11
5 23 6 3 16 16 16 12
4 22 3 2 14 15 15 12
4 21 2 1 13 14 14 11
4 17 -2 0 11 13 13 9
5 14 -5 -3 9 11 11 7
6 13 -6 -5 6 9 9 6
6 12 -7 -7 4 7 7 5
6 13 -8 -8 4 6 7 6
9 13 -10 -10 3 5 7 6
9 12 -10 -10 3 5 7 6
7 10 -10 -10 2 5 7 6
4 11 -10 -10 2 5 7 7
4 12 -11 -12 1 4 7 7
4 14 -11 -13 1 4 8 7
5 16 -10 -13 1 4 8 8
4 16 -10 -13 1 4 8 8
2 15 -9 -14 0 4 8 8
-2 13 -7 -14 0 4 7 8
-4 9 -6 -14 -3 2 5 5
-7 5 -5 -15 -4 0 3 2
-6 3 -5 -15 -4 0 3 1
-5 1 -5 -16 -4 -2 2 -2
-5 -3 -7 -17 -5 -3 0 -3
-9 -8 -9 -19 -8 -5 -3 -6
-11 -10 -11 -21 -10 -9 -8 -8
-10 -9 -10 -20 -10 -10 -9 -9
-9 -8 -10 -20 -11 -10 -9 -9
-8 -7 -10 -21 -11 -10 -9 -9
-7 -7 -10 -21 -11 -10 -8 -8
-8 -8 -10 -20 -11 -9 -8 -7
-7 -7 -10 -20 -12 -10 -8 -7
-6 -7 -9 -20 -11 -10 -8 -7
-7 -8 -10 -20 -11 -10 -8 -7
-8 -9 -10 -19 -10 -9 -7 -6
-9 -9 -9 -19 -9 -8 -6 -5
-9 -8 -8 -19 -9 -7 -4 -4
-9 -8 -8 -18 -8 -6 -3 -3
-8 -7 -8 -18 -8 -6 -3 -3
-7 -7 -7 -18 -8 -5 -3 -3
-9 -8 -8 -18 -9 -6 -4 -5
-11 -9 -9 -18 -9 -7 -5 -7
-10 -9 -7 -17 -8 -6 -5 -8
-8 -8 -6 -17 -7 -7 -5 -8
-9 -8 -7 -18 -8 -8 -6 -9
-10 -8 -8 -19 -10 -9 -8 -11
-9 -7 -7 -18 -9 -9 -7 -9
-8 -6 -7 -18 -8 -8 -6 -7
-7 -7 -7 -17 -7 -7 -4 -5
-8 -8 -7 -17 -7 -6 -3 -4
-9 -8 -8 -18 -8 -7 -4 -4
-10 -9 -7 -18 -8 -7 -4 -4
-10 -9 -7 -18 -8 -7 -4 -5
-9 -9 -7 -19 -9 -8 -6 -7
-9 -9 -7 -19 -9 -8 -6 -7
-9 -9 -7 -19 -9 -8 -6 -8
-7 -7 -6 -17 -7 -7 -5 -7
-6 -6 -6 -16 -7 -7 -6 -8
-9 -9 -6 -17 -8 -8 -7 -9
-9 -10 -5 -16 -8 -8 -8 -10
-8 -9 -5 -14 -7 -7 -8 -10
-9 -8 -3 -11 -5 -7 -9 -11
-10 -9 1 -7 -3 -7 -9 -12
-11 -11 4 1 2 -7 -10 -14
-11 -12 9 11 10 -2 -10 -15
-11 -11 13 23 22 7 -6 -12
-11 -9 18 37 37 20 4 -8
-10 -5 23 54 58 37 15 0
-7 3 31 77 86 62 33 12
-3 12 39 101 119 94 57 27
3 20 45 117 154 130 81 42
7 23 53 137 194 170 108 58
14 27 60 152 232 209 134 72
22 35 65 161 265 245 161 91
32 48 65 160 286 274 186 110
40 56 50 136 281 280 197 123
48 60 19 80 234 251 191 129
53 62 -25 -7 140 177 160 123
53 65 -74 -131 4 68 111 110
46 61 -119 -274 -143 -49 51 88
34 45 -155 -407 -276 -158 -19 49
24 18 -194 -517 -391 -254 -83 8
23 -4 -238 -594 -471 -314 -124 -16
28 -12 -266 -611 -489 -327 -135 -22
32 -15 -273 -585 -471 -318 -134 -23
30 -15 -271 -555 -451 -308 -135 -23
21 -8 -260 -520 -426 -291 -130 -22
8 9 -235 -466 -381 -261 -115 -16
-3 23 -210 -410 -331 -227 -97 -7
-6 28 -195 -369 -296 -203 -86 -4
-5 25 -185 -336 -268 -186 -79 -6
-5 24 -174 -301 -239 -166 -72 -8
-7 25 -159 -265 -208 -144 -62 -6
-9 22 -148 -235 -185 -128 -56 -7
-8 18 -136 -208 -165 -115 -53 -10
-5 15 -119 -180 -144 -102 -48 -11
-4 13 -99 -148 -119 -86 -39 -9
-4 11 -78 -118 -95 -68 -31 -7
-4 7 -60 -90 -72 -52 -23 -4
-5 3 -48 -70 -58 -43 -19 -3
-4 1 -38 -56 -46 -34 -15 -3
-4 0 -30 -43 -34 -27 -12 -3
-4 -2 -23 -32 -27 -21 -9 -2
-5 -2 -17 -23 -21 -18 -9 0
-4 -3 -12 -20 -18 -16 -8 -2
-6 -5 -10 -16 -17 -15 -9 -3
-9 -9 -9 -15 -17 -15 -10 -4
-9 -9 -9 -13 -16 -15 -10 -6
-5 -7 -8 -11 -14 -14 -9 -7
-4 -7 -6 -7 -12 -12 -8 -7
-5 -8 -6 -6 -11 -12 -10 -7
-6 -9 -7 -6 -11 -13 -11 -8
-5 -8 -6 -4 -9 -10 -9 -6
-4 -7 -5 -3 -7 -10 -9 -4
-4 -6 -4 0 -7 -9 -8 -3
-4 -6 -2 3 -5 -8 -7 -4
-5 -7 1 4 -4 -7 -7 -5
-6 -9 0 4 -3 -8 -6 -6
-6 -11 1 5 -3 -8 -6 -7
-6 -11 1 7 -2 -8 -6 -6
-5 -11 1 8 0 -7 -5 -6
-5 -10 1 8 0 -7 -5 -6
-4 -9 2 10 1 -5 -4 -5
-3 -8 0 10 2 -5 -4 -5
-5 -9 1 11 2 -5 -5 -5
-7 -10 2 11 2 -6 -5 -5
-7 -10 4 13 3 -5 -4 -4
-6 -9 4 13 4 -5 -4 -5
-5 -9 5 14 6 -3 -3 -4
-4 -9 6 16 7 -2 -3 -3
-4 -9 6 17 6 -2 -2 -2
-4 -8 5 17 5 -2 -2 -2
-3 -8 5 18 6 0 -2 0
-3 -7 6 19 7 0 -2 0
-4 -7 7 20 8 1 -2 0
-5 -8 9 21 9 1 1 0
-5 -9 8 22 10 1 0 -2
-5 -10 8 23 10 0 -2 -3
-3 -9 9 24 11 1 -2 -4
0 -7 9 25 12 1 -2 -4
0 -7 8 25 12 2 -2 -4
-2 -6 8 25 12 3 -2 -4
0 -6 7 26 12 3 -2 -4
0 -7 7 27 13 4 -2 -4
-2 -7 8 28 13 4 -2 -4
0 -5 10 30 15 4 0 -4
0 -6 11 32 16 5 0 -3
-4 -8 12 33 17 4 -2 -4
-4 -8 12 34 17 4 -2 -4
-3 -8 12 34 17 4 -2 -4
-3 -10 11 35 17 4 -2 -4
-3 -8 11 35 18 5 0 -2
2 -4 12 37 19 6 3 1
3 0 13 39 21 7 4 3
0 -5 13 40 20 7 2 3
-3 -7 14 42 22 8 3 4
0 -6 15 44 23 9 5 4
0 -6 17 47 26 12 6 5
1 -6 16 47 26 10 5 4
1 -6 16 48 26 9 5 3
1 -6 16 50 26 10 6 4
1 -5 16 52 28 12 7 5
1 -4 17 54 28 13 8 6
1 -4 17 55 30 14 8 6
3 -4 16 55 30 13 7 6
4 -3 17 56 30 13 7 5
3 -3 19 60 33 16 9 7
1 -3 20 62 35 17 10 7
1 -4 22 64 37 18 11 8
2 -3 21 66 37 17 11 7
3 0 21 67 37 17 11 7
5 2 20 68 38 18 11 7
6 3 19 69 39 19 11 7
6 4 19 71 40 20 11 8
5 4 20 73 43 21 12 8
3 5 22 75 44 21 13 8
4 6 24 77 46 23 14 10
7 6 25 80 46 23 15 11
7 6 25 82 48 24 16 12
7 6 25 85 49 25 17 12
8 6 24 86 50 26 16 13
10 8 25 88 52 27 17 14
11 10 25 89 53 27 18 15
10 10 25 90 52 26 18 15
9 8 26 92 52 26 17 15
9 8 28 95 53 28 18 16
10 9 30 98 56 30 21 18
11 10 30 99 57 30 21 19
12 10 30 101 57 30 21 20
12 11 29 101 56 28 20 19
12 11 28 102 55 28 20 19
11 11 28 103 56 28 20 20
10 11 27 102 55 28 20 20
11 13 27 103 56 28 19 21
15 15 28 103 55 27 19 20
15 15 28 104 54 25 18 18
13 12 28 104 54 25 18 17
14 12 28 103 53 23 16 16
14 13 29 104 53 23 17 17
15 14 29 103 51 21 16 17
15 14 28 103 49 20 15 17
14 13 27 101 47 17 14 16
13 12 26 99 46 16 13 16
12 13 28 99 46 16 14 17
12 14 28 98 44 15 12 16
12 13 29 98 44 14 11 16
13 13 28 96 40 12 9 15
13 13 28 94 39 11 8 14
13 12 28 93 39 10 8 13
13 12 27 91 36 7 6 11
13 11 26 89 34 6 5 11
13 11 25 86 31 4 4 11
13 11 24 84 28 3 3 11
13 11 24 81 27 1 2 10
15 11 24 79 25 1 1 11
15 11 25 77 24 0 1 11
14 10 26 76 23 0 1 11
12 8 26 74 22 -2 1 10
11 7 26 72 22 -3 1 10
11 8 25 70 20 -5 0 10
13 9 22 67 18 -7 -3 8
12 9 20 64 15 -9 -5 7
10 7 18 60 12 -10 -6 3
8 6 18 59 12 -10 -6 3
10 7 20 58 13 -9 -5 4
12 8 20 56 13 -8 -5 4
11 7 20 55 12 -7 -4 4
9 6 20 53 13 -7 -4 3
8 5 21 51 14 -5 -3 4
8 4 19 49 13 -5 -3 3
8 3 18 46 11 -7 -4 2
6 3 17 44 12 -7 -5 2
5 3 16 42 12 -6 -6 2
4 4 17 39 12 -5 -5 2
4 5 17 36 12 -4 -5 2
3 3 16 34 11 -4 -5 0
2 2 15 31 10 -5 -5 -2
3 3 14 29 9 -5 -5 -3
4 4 14 26 9 -5 -5 -3
2 3 13 24 9 -4 -5 -3
1 1 12 23 8 -4 -4 -3
2 2 12 22 8 -3 -3 0
2 2 10 20 7 -2 -3 1
-2 1 9 17 6 -2 -3 1
-4 0 9 15 5 0 -2 1
-2 1 10 14 5 0 0 1
-2 1 11 13 6 1 0 2
-4 -2 10 12 5 1 0 2
-6 -4 10 12 5 2 1 2
-4 -4 8 9 4 0 -2 -2
-2 -3 7 6 3 -2 -3 -4
-2 -2 7 5 2 -2 -2 -4
-3 0 6 3 1 -2 -2 -4
-4 -2 5 1 0 -3 -4 -6
-5 -3 6 1 -2 -3 -4 -5
-5 -3 7 1 0 -2 -3 -5
-5 -3 6 0 0 -2 -4 -5
-5 -3 5 -2 -2 -3 -5 -5
-6 -3 5 -2 -4 -4 -5 -5
-5 -3 5 -3 -4 -4 -4 -5
-5 -3 4 -3 -4 -4 -5 -5
-5 -3 3 -4 -4 -4 -5 -5
-6 -2 3 -4 -4 -3 -4 -4
-6 -2 3 -5 -4 -3 -4 -3
-7 -2 4 -5 -4 -3 -4 -3
-7 -3 5 -5 -3 -3 -3 -3
-6 -3 4 -5 -3 -3 -3 -3
-5 -3 4 -4 -2 -2 -3 -3
-7 -3 4 -3 -2 -2 -3 -4
-8 -3 3 -4 -2 -3 -3 -5
-6 0 3 -4 -3 -2 -2 -4
-5 0 3 -5 -3 -2 -3 -4
-6 -2 4 -4 -3 -2 -3 -4
-7 -2 3 -4 -4 -4 -3 -4
-8 -2 4 -4 -3 -3 -2 -3
-8 -2 4 -4 -2 -2 -2 -3
-6 0 4 -3 -2 -2 -2 -3
-5 2 4 -3 -2 -2 -2 -4
-5 2 5 -2 0 0 0 -4
-5 2 6 0 0 0 0 -4
-5 1 5 0 0 0 0 -4
-7 1 4 0 0 0 -2 -4
-9 1 3 -2 -2 -2 -3 -5
-9 0 5 0 1 1 0 -3
-9 0 5 0 2 2 1 -2
-6 1 5 1 3 2 0 -2
-3 4 6 3 4 3 1 0
-4 2 6 3 3 3 0 0
-6 -2 4 2 2 2 -2 -2
-5 0 4 2 2 1 0 -3
-5 1 5 4 4 2 1 -3
-8 0 4 3 4 2 0 -4
-8 0 3 2 3 1 -3 -5
-7 1 4 3 4 3 0 -4
-6 2 4 3 4 3 0 -4
-6 2 4 4 5 3 0 -5
-7 2 5 5 6 4 0 -4
-7 1 7 7 8 6 1 -2
-7 1 7 8 8 6 2 -2
-7 0 6 8 8 6 2 -2
-7 0 6 8 9 6 3 0
-7 0 6 8 9 6 3 1
-6 0 6 7 8 7 4 1
-6 0 5 7 8 7 4 1
-6 1 5 7 8 8 4 2
-6 2 6 7 9 9 5 2
-6 2 7 7 8 9 5 1
-6 2 7 8 9 10 6 1
-5 2 8 9 10 11 6 1
-6 1 7 9 10 10 5 0
-7 1 8 10 11 11 5 1
-6 2 7 8 11 10 5 0
-5 2 6 8 10 9 5 0
-5 1 6 7 10 9 4 0
-6 1 6 7 11 10 4 0
-7 1 7 8 11 11 4 0
-7 0 6 7 10 10 3 -2
-6 -2 6 6 10 9 4 0
-5 1 7 7 10 9 4 0
-6 2 9 8 12 11 5 2
-6 3 8 9 12 11 6 2
-5 2 6 8 11 10 5 1
-4 1 4 6 10 9 5 -2
-6 -2 5 6 10 9 5 0
-6 0 5 5 9 9 5 1
-7 -2 4 4 8 8 4 0
-8 -5 5 4 9 8 5 1
-8 -5 6 5 10 9 5 0
-6 -2 6 6 9 9 4 -2
-6 0 6 6 10 8 3 -2
-8 -3 5 4 9 8 3 -3
-8 -3 5 3 7 7 2 -4
-8 -2 5 3 7 7 2 -4
-7 0 4 2 6 6 2 -4
-7 1 5 2 7 7 2 -3
-7 0 5 2 7 7 3 -3
-6 -2 5 2 7 7 3 -2
-5 -3 4 1 6 6 2 -3
-6 -3 4 1 5 5 2 -4
-7 -4 4 1 5 6 2 -3
-7 -5 4 0 5 6 2 -3
-7 -5 5 -2 5 6 2 -3
-7 -4 6 0 5 7 2 -3
-7 -4 6 0 5 7 2 -4
-7 -4 5 -3 5 7 2 -5
-8 -5 6 -2 6 7 2 -4
-6 -5 6 0 6 7 2 -4
-5 -5 7 1 6 8 2 -3
-6 -5 6 0 5 6 1 -5
-8 -7 6 -2 5 5 0 -6
-7 -6 5 -3 5 5 0 -5
-7 -6 4 -4 4 5 0 -5
-9 -8 4 -5 3 4 0 -6
-9 -7 5 -4 4 5 1 -5
-6 -5 5 -4 4 5 1 -4
-7 -5 4 -5 3 4 1 -4
-9 -7 4 -5 3 5 1 -4
-9 -7 5 -4 3 6 2 -3
-6 -6 5 -4 3 6 2 -3
-5 -6 4 -4 3 6 2 -4
-8 -8 3 -5 3 5 1 -5
-9 -8 2 -6 2 4 1 -5
-7 -8 1 -7 2 3 -2 -5
-7 -8 2 -7 2 3 -2 -5
-8 -8 3 -6 2 4 1 -4
-7 -7 4 -6 2 4 0 -5
-6 -7 5 -5 2 5 0 -5
-8 -9 5 -6 1 4 0 -6
-8 -10 5 -7 0 3 -2 -7
-7 -9 5 -6 2 3 -2 -5
-7 -10 3 -7 1 3 -2 -6
-9 -11 1 -8 0 3 -2 -7
-8 -9 1 -9 -2 2 -3 -7
-7 -8 3 -8 -2 3 -3 -5
-6 -7 4 -8 -2 3 -2 -5
-8 -7 4 -9 -3 2 -3 -7
-8 -8 5 -8 0 2 -2 -6
-8 -8 5 -8 0 2 -3 -7
-9 -9 4 -8 -3 1 -3 -8
-9 -9 4 -9 -3 0 -4 -8
-9 -9 4 -10 -2 0 -3 -8
-9 -8 3 -9 -2 1 -3 -7
-9 -8 3 -9 -2 1 -3 -7
-9 -8 2 -9 -2 2 -3 -7
-7 -8 1 -11 -3 1 -4 -8
-8 -7 2 -11 -3 1 -4 -8
-9 -7 4 -8 0 2 -3 -6
-7 -6 4 -7 0 2 -2 -6
-7 -6 3 -8 -2 2 -4 -7
-9 -9 2 -10 -3 0 -5 -9
-9 -9 2 -10 -3 0 -4 -9
-7 -6 3 -9 -2 1 -3 -7
-6 -7 2 -10 -3 0 -4 -7
-8 -9 2 -10 -4 0 -4 -7
-9 -10 3 -10 -3 1 -4 -7
-10 -10 3 -9 -3 2 -3 -7
-10 -10 4 -9 -3 2 -3 -7
-9 -11 3 -9 -3 1 -4 -8
-9 -11 3 -9 -4 0 -4 -9
-9 -12 2 -10 -4 0 -5 -9
-9 -11 2 -10 -4 0 -4 -8
-7 -8 3 -10 -4 0 -4 -8
-6 -6 4 -10 -3 1 -4 -9
-7 -7 3 -10 -3 1 -4 -8
-9 -8 3 -10 -3 1 -5 -8
-9 -7 4 -9 -3 2 -4 -7
-7 -7 5 -8 -3 1 -4 -7
-7 -7 5 -9 -3 1 -4 -7
-9 -8 5 -9 -3 2 -3 -6
-10 -9 6 -8 -2 3 -2 -6
-10 -9 6 -7 0 3 -2 -6
-9 -7 6 -7 1 4 -2 -6
-8 -5 6 -7 1 4 0 -5
-7 -4 6 -7 1 4 0 -5
-8 -3 6 -7 2 4 0 -5
-8 -2 8 -6 3 6 2 -5
-7 1 10 -4 4 7 3 -4
-6 3 11 -3 5 8 3 -3
-6 2 11 -4 5 7 2 -5
-6 0 12 -5 5 6 1 -6
-6 1 11 -5 4 5 0 -6
-4 3 13 -4 5 6 2 -4
-3 4 13 -3 6 7 2 -4
-6 2 13 -3 6 8 3 -4
-8 3 13 -3 6 9 4 -3
-7 5 15 1 9 12 7 0
-6 7 15 3 11 14 8 1
-5 9 15 4 12 15 8 2
-3 13 14 4 13 16 10 4
0 17 13 4 14 18 12 5
2 20 12 4 16 19 14 7
4 20 10 3 15 19 14 8
3 17 7 2 13 18 13 8
1 12 6 1 12 16 12 8
0 7 4 -3 9 13 10 6
1 5 3 -5 7 11 8 5
1 4 2 -6 6 10 7 4
0 4 2 -6 5 11 7 4
1 4 0 -8 3 9 6 3
4 5 0 -7 3 9 7 4
4 4 0 -7 4 10 7 5
3 3 -2 -9 3 9 5 4
3 5 -3 -11 1 8 4 3
4 10 -3 -12 0 8 4 2
2 11 -2 -12 2 8 6 4
-3 9 -2 -11 1 7 5 3
-4 8 -3 -13 -2 5 3 1
-3 6 0 -13 -2 5 3 0
-5 4 1 -13 -2 4 1 -2
-7 0 3 -12 -2 4 0 -4
-9 -5 4 -12 -3 3 -2 -6
-10 -8 2 -14 -4 1 -4 -8
-11 -11 1 -16 -6 -2 -6 -9
-10 -12 0 -17 -8 -4 -8 -11
-9 -13 -2 -18 -10 -5 -9 -12
-9 -13 -3 -18 -10 -6 -10 -12
-8 -11 1 -16 -8 -4 -7 -10
-7 -10 1 -16 -7 -3 -7 -10
-9 -12 0 -17 -9 -4 -8 -11
-10 -14 -3 -17 -9 -5 -9 -12
-9 -14 -4 -18 -10 -6 -9 -12
-9 -14 -4 -18 -10 -6 -9 -12
-10 -15 -4 -18 -9 -6 -9 -12
-12 -15 -2 -17 -8 -5 -8 -11
-12 -15 1 -16 -7 -3 -7 -10
-11 -14 1 -16 -8 -4 -7 -10
-10 -14 1 -16 -8 -4 -7 -11
-10 -14 1 -16 -8 -4 -8 -11
-11 -14 1 -16 -9 -4 -9 -12
-11 -15 1 -16 -9 -4 -9 -12
-11 -14 1 -16 -8 -4 -9 -12
-10 -14 2 -16 -8 -3 -9 -12
-9 -14 1 -17 -8 -4 -9 -12
-9 -14 1 -16 -7 -3 -9 -12
-9 -14 2 -17 -8 -4 -9 -12
-11 -14 2 -16 -8 -4 -9 -12
-12 -15 3 -15 -7 -4 -8 -11
-10 -14 4 -14 -7 -3 -8 -11
-9 -13 5 -14 -7 -2 -8 -10
-10 -14 5 -14 -6 -2 -8 -10
-12 -15 4 -14 -6 -2 -8 -10
-11 -14 2 -15 -7 -4 -9 -12
-11 -13 2 -15 -7 -4 -9 -11
-11 -13 3 -14 -6 -3 -8 -11
-11 -13 3 -14 -5 -2 -8 -11
-11 -14 3 -14 -5 -2 -8 -11
-12 -15 3 -14 -5 -2 -7 -10
-12 -16 4 -14 -6 -2 -7 -11
-11 -15 5 -12 -7 -2 -8 -12
-10 -14 8 -7 -4 0 -7 -11
-11 -15 8 -6 -2 0 -9 -13
-14 -18 11 -3 1 -2 -11 -15
-15 -18 16 7 6 1 -12 -17
-13 -17 21 18 16 6 -10 -17
-10 -16 23 29 27 14 -7 -16
-10 -14 28 45 44 27 4 -11
-10 -9 37 65 67 48 18 0
-9 -2 47 88 98 75 37 12
-4 6 53 108 132 108 61 27
2 15 58 127 171 146 88 43
9 21 66 150 214 189 114 58
15 24 74 168 252 229 140 74
20 31 77 176 283 266 168 94
29 45 72 172 304 294 193 113
39 55 52 142 293 297 204 127
48 59 17 84 240 261 194 131
54 60 -28 -8 141 184 163 127
54 63 -78 -139 1 73 114 112
46 57 -123 -286 -151 -48 51 86
33 34 -160 -418 -288 -159 -21 46
25 6 -202 -527 -403 -255 -86 6
25 -13 -242 -594 -473 -308 -120 -15
29 -21 -264 -598 -483 -316 -129 -19
30 -24 -266 -568 -464 -306 -130 -20
27 -21 -263 -539 -444 -296 -130 -22
17 -12 -248 -502 -414 -278 -123 -21
3 3 -223 -446 -367 -247 -109 -15
-7 16 -199 -393 -319 -214 -93 -8
-8 20 -186 -353 -285 -190 -81 -5
-8 17 -175 -319 -258 -173 -75 -7
-10 15 -163 -285 -229 -155 -70 -10
-11 17 -151 -252 -200 -135 -62 -9
-7 18 -138 -222 -176 -118 -55 -8
-5 16 -122 -193 -154 -103 -50 -9
-7 13 -104 -163 -132 -88 -43 -9
-7 11 -83 -133 -108 -71 -35 -8
-6 8 -63 -102 -83 -56 -28 -5
-7 2 -47 -79 -65 -44 -23 -5
-6 -5 -35 -61 -52 -34 -20 -5
-4 -6 -26 -47 -39 -26 -16 -5
-5 -7 -18 -35 -30 -20 -13 -4
-6 -8 -11 -25 -23 -15 -10 -3
-5 -8 -6 -18 -18 -12 -9 -2
-6 -10 -3 -13 -15 -10 -8 -3
-8 -11 -2 -11 -14 -9 -8 -3
-8 -11 1 -9 -11 -8 -8 -3
-7 -12 2 -6 -10 -8 -7 -3
-9 -14 0 -7 -10 -8 -9 -7
-9 -15 1 -4 -9 -8 -8 -7
-8 -14 3 -2 -8 -7 -9 -7
-9 -13 3 0 -7 -6 -9 -7
-9 -13 2 1 -6 -7 -9 -8
-9 -13 4 3 -5 -6 -9 -8
-8 -13 6 4 -4 -5 -9 -9
-9 -14 7 5 -3 -5 -9 -10
-9 -14 9 9 0 -4 -8 -9
-8 -12 11 12 2 0 -6 -9
-6 -13 12 13 4 0 -5 -8
-5 -13 10 12 3 -2 -7 -9
-2 -12 10 13 2 -2 -8 -10
-3 -12 10 14 3 -2 -7 -10
-5 -12 11 14 3 0 -7 -9
-8 -13 11 15 3 0 -7 -8
-8 -13 12 16 5 2 -7 -7
-8 -12 14 17 6 3 -6 -6
-8 -13 15 19 7 3 -5 -6
-7 -13 15 20 8 3 -5 -6
-7 -14 15 21 9 3 -5 -6
-6 -14 15 22 9 4 -3 -5
-6 -14 15 22 9 3 -4 -5
-6 -14 15 22 8 3 -5 -6
-5 -13 14 22 9 3 -5 -6
-5 -13 15 24 11 4 -4 -5
-4 -13 16 26 13 6 -3 -4
-5 -13 18 28 14 7 -3 -3
-5 -12 20 30 15 8 -2 -2
-4 -12 21 31 15 9 1 -2
-4 -13 20 32 15 8 -2 -3
-7 -16 18 31 14 6 -3 -5
-7 -15 18 32 15 7 -3 -4
-3 -11 19 33 17 9 0 -2
-2 -10 18 34 17 8 0 -2
-7 -13 18 34 17 8 0 -3
-9 -14 17 33 16 7 -4 -6
-7 -12 20 37 19 9 0 -4
-6 -12 22 40 21 11 1 -2
-8 -13 23 40 21 12 2 -2
-7 -13 22 42 22 12 1 -3
-4 -13 22 43 22 12 2 -3
-2 -12 22 44 23 12 2 -2
-3 -12 22 45 24 13 3 0
-3 -11 23 47 25 14 4 1
-3 -11 23 48 26 15 5 2
-4 -11 24 49 27 16 6 3
-3 -10 25 52 28 17 6 3
-3 -10 26 54 29 17 6 4
-4 -10 27 56 30 17 6 4
-5 -10 28 57 31 17 7 4
-3 -10 28 58 32 18 8 5
0 -10 26 58 32 18 7 4
1 -9 23 58 32 17 7 4
1 -9 24 59 33 18 8 4
1 -8 25 61 35 19 9 5
-2 -8 28 64 37 21 11 7
-3 -7 30 67 39 22 11 7
-3 -7 32 70 40 23 12 8
0 -6 32 71 42 23 12 8
3 -5 31 72 42 24 11 8
6 -3 33 75 43 26 13 10
7 -2 31 75 44 26 13 10
4 -5 29 75 44 25 12 10
1 -7 31 78 45 27 14 11
3 -4 32 79 46 27 14 12
6 -2 33 81 47 28 15 13
5 -2 35 86 50 30 16 14
5 -2 36 89 51 30 17 15
6 1 36 90 52 31 18 14
6 0 36 91 53 31 18 13
3 -3 36 94 53 31 19 14
3 -3 35 94 54 32 18 15
5 0 34 95 54 32 18 14
7 1 35 97 55 32 19 15
7 3 37 100 57 34 21 17
7 5 37 101 58 35 22 18
7 5 39 104 60 36 23 20
8 5 39 105 60 36 23 20
9 5 39 106 60 34 22 20
10 5 40 108 61 35 23 21
11 6 42 110 62 35 24 21
12 7 40 111 62 35 24 22
12 8 38 110 60 34 23 21
12 8 38 110 60 34 22 22
13 9 39 111 60 34 23 22
11 9 40 111 60 34 23 23
9 8 42 112 61 35 23 24
9 7 43 114 61 35 24 25
12 8 40 112 59 33 21 23
15 9 40 111 57 31 20 22
14 9 39 111 55 30 19 22
13 10 39 110 55 28 19 23
14 11 38 110 54 27 19 23
13 9 38 109 52 26 18 23
12 8 36 106 50 23 16 21
13 8 36 105 49 22 15 21
13 8 37 104 48 21 15 20
13 8 38 103 46 20 15 20
14 10 39 103 45 20 15 20
13 9 39 102 44 19 13 20
10 6 37 99 42 17 11 18
10 5 35 96 38 15 10 16
12 6 34 95 36 13 10 16
13 7 33 92 33 10 8 14
12 7 34 90 32 10 8 14
13 8 34 89 31 9 7 14
14 9 34 87 29 7 6 13
11 7 34 85 28 6 5 12
8 4 33 81 26 4 3 11
8 2 32 79 25 2 1 10
10 3 32 78 24 2 1 10
12 5 30 75 22 0 -2 9
11 5 29 73 21 0 0 9
10 4 28 71 19 0 0 7
9 4 29 70 19 1 1 9
9 4 30 67 19 1 1 8
8 3 29 64 18 0 0 7
7 2 28 63 18 0 0 7
6 1 29 61 18 1 -2 7
5 0 27 58 16 0 -3 6
4 -3 26 55 15 -2 -2 6
3 -2 25 53 15 0 -2 6
2 0 24 51 15 1 0 6
3 0 23 49 15 2 0 6
5 0 22 46 14 1 0 5
6 1 22 44 15 2 1 5
5 1 22 42 15 3 2 5
3 0 22 39 15 4 2 6
3 0 21 37 14 4 1 4
2 1 21 35 14 4 1 3
2 0 20 32 13 4 0 1
1 0 18 30 12 4 0 1
0 -2 14 28 10 3 -2 1
1 -2 12 26 10 4 -2 1
1 -2 13 24 9 4 -3 0
-3 -3 13 22 8 4 -3 0
-6 -5 14 22 9 5 -2 1
-5 -3 15 21 10 5 1 1
-2 -2 15 21 11 6 1 2
-3 -4 14 19 9 5 0 1
-5 -7 12 16 8 4 0 0
-4 -6 11 15 8 5 1 1
1 -3 9 12 6 3 -2 -2
1 -3 8 11 5 2 -2 0
-2 -4 8 10 5 3 -2 1
-2 -2 10 11 6 5 1 3
0 0 10 10 5 5 1 2
-5 -5 9 9 5 4 1 1
-9 -9 9 7 5 4 1 1
-8 -7 9 7 5 5 1 1
-6 -6 9 8 5 6 2 1
-6 -6 8 7 4 4 1 0
-7 -7 7 6 3 3 1 0
-5 -6 6 6 4 3 1 1
-2 -3 7 6 4 4 1 2
1 1 7 5 3 4 1 1
0 0 8 7 5 6 3 2
0 -2 8 6 5 5 2 1
-3 -3 8 5 5 5 1 0
-5 -5 8 5 5 5 1 0
-6 -7 7 5 4 4 0 0
-4 -6 6 5 4 4 1 1
-2 -2 6 6 5 5 2 1
-2 0 6 7 6 7 2 2
-4 -2 8 7 6 7 2 3
-3 0 8 7 5 6 2 4
-2 1 7 7 5 5 2 3
-3 -2 7 7 5 6 3 3
-5 -4 7 7 5 6 3 1
-5 -4 7 7 6 6 3 1
-5 -5 8 9 7 7 4 3
-6 -5 7 8 6 6 4 2
-7 -6 7 7 6 6 4 1
-7 -7 6 7 6 6 3 1
-6 -5 6 8 7 6 3 2
-7 -3 7 9 8 7 4 3
-7 -4 7 9 8 7 4 2
-7 -6 8 10 8 8 4 2
-7 -5 8 9 7 7 3 2
-6 -4 9 11 9 9 5 3
-5 -2 9 11 10 10 5 3
-3 0 8 11 10 9 5 3
1 2 5 10 9 7 4 3
3 4 5 12 10 9 5 5
5 7 6 13 11 10 6 6
8 9 7 13 12 11 6 6
9 10 8 14 13 12 8 7
5 7 8 14 12 12 7 7
1 4 7 13 11 11 6 5
-5 0 8 14 12 11 6 4
-8 -4 8 14 13 11 6 4
-7 -3 8 14 13 11 7 4
-4 -2 6 12 11 10 5 3
-5 -3 6 13 12 11 6 3
-7 -4 6 14 13 12 7 4
-6 -2 8 15 15 13 8 6
-3 4 9 16 15 13 8 6
0 5 9 16 15 13 8 7
-2 2 8 16 15 14 8 7
-3 0 7 16 15 13 8 5
-3 0 7 17 15 13 8 5
-4 0 8 17 16 13 8 5
-5 1 7 16 15 14 8 5
-5 1 6 16 15 14 8 4
-4 2 6 15 14 13 8 5
-2 5 6 16 15 13 8 6
3 8 6 16 16 14 9 6
5 9 7 16 16 15 10 6
3 7 8 17 16 15 10 7
1 4 7 15 15 13 8 4
-4 0 6 14 14 12 7 3
-8 -5 6 13 13 11 6 3
-6 -4 6 12 13 10 5 3
-4 -2 5 11 12 9 4 2
-5 -2 5 11 12 10 4 2
-5 -2 5 12 13 11 5 2
-5 0 5 12 13 11 5 3
-5 0 5 13 14 12 6 4
-3 1 6 13 15 13 7 4
3 4 7 13 15 13 8 5
6 5 6 12 13 13 7 5
2 3 5 11 13 12 7 5
-4 0 4 10 12 11 7 4
-7 -2 3 8 10 9 5 4
-7 -3 4 9 10 10 6 4
-6 -2 3 8 10 9 5 3
-7 -2 3 9 10 9 5 3
-8 -3 5 10 10 10 5 3
-5 -2 5 10 11 10 5 3
-3 0 4 9 10 9 5 2
0 0 3 7 9 8 4 1
2 3 4 8 9 9 6 3
5 7 4 8 10 10 7 5
6 7 3 8 10 9 6 5
3 3 1 6 8 8 4 3
-3 0 1 4 7 8 4 2
-6 -2 2 4 6 7 3 1
-7 -3 2 4 6 7 3 1
-8 -5 2 3 6 6 2 0
-8 -4 2 3 5 5 1 -3
-5 -2 4 5 7 7 3 -2
-3 0 4 4 7 7 3 0
-3 -2 1 1 6 6 1 -3
-3 -2 0 1 5 5 1 -3
-3 -2 1 0 5 5 1 0
-2 0 1 -2 4 4 0 -2
-2 0 1 -2 4 4 1 -2
-3 -2 2 1 4 6 3 1
-5 -3 1 -2 4 5 1 0
-7 -5 0 -4 3 4 0 -3
-6 -4 1 -3 4 5 2 -2
-3 1 0 -3 4 5 2 0
-3 2 0 -3 4 5 2 0
-3 0 0 -3 3 4 0 -2
0 1 0 -3 3 3 -2 -2
1 3 1 -2 4 3 0 0
2 4 0 -4 2 3 0 -2
1 1 -2 -6 1 2 -3 -4
-3 -3 -2 -6 1 1 -4 -6
-5 -3 0 -6 1 1 -3 -6
-5 -4 0 -5 1 1 -4 -6
-5 -5 1 -4 1 2 -3 -4
-4 -3 1 -4 1 2 -2 -3
-3 0 1 -5 1 2 -2 -3
-2 1 0 -6 1 2 -2 -3
-2 1 -2 -7 1 1 -3 -3
-4 1 0 -7 1 2 -3 -3
-4 1 1 -6 2 2 -2 -2
-4 1 1 -7 1 1 -3 -3
-8 -5 0 -8 1 0 -3 -5
-10 -9 -3 -10 -2 -2 -5 -6
-8 -7 -3 -11 -4 -3 -6 -6
-4 -5 -3 -11 -4 -4 -6 -6
-4 -5 -3 -10 -4 -3 -5 -5
-5 -4 -4 -9 -3 -2 -5 -5
-4 -4 -4 -9 -2 -2 -4 -4
-3 -4 -3 -9 -2 -2 -4 -5
-4 -4 -3 -10 -3 -2 -4 -6
-5 -5 -3 -9 -3 -2 -4 -6
-6 -5 -3 -10 -3 -2 -4 -7
-6 -3 -3 -10 -4 -3 -5 -7
-4 0 -3 -9 -3 -2 -5 -7
-3 0 -3 -10 -3 -3 -5 -8
-4 -2 -4 -12 -5 -4 -6 -9
-5 -2 -4 -11 -4 -4 -6 -8
-6 -2 -4 -11 -4 -4 -6 -7
-5 -2 -3 -10 -3 -3 -4 -6
-5 0 -3 -10 -3 -2 -3 -7
-5 0 -4 -11 -3 -3 -4 -7
-5 -2 -3 -11 -3 -3 -5 -7
-2 0 -4 -11 -4 -4 -5 -7
2 2 -4 -11 -3 -3 -4 -5
4 5 -5 -12 -3 -3 -3 -5
5 7 -4 -11 -3 -2 -3 -5
1 6 -2 -9 -2 0 -2 -4
-6 3 0 -9 -2 0 -3 -4
-7 1 0 -9 0 0 -3 -4
-8 0 0 -10 -2 -2 -4 -4
-8 -2 0 -10 -2 -3 -4 -5
-6 1 0 -11 -2 -2 -4 -6
-3 5 1 -9 1 1 -2 -5
0 7 2 -7 2 2 0 -3
2 10 3 -7 2 1 -2 -3
4 13 3 -6 3 2 0 -3
3 12 3 -7 3 2 0 -2
-4 8 3 -9 1 1 0 -3
-7 6 4 -8 1 1 0 -4
-6 6 6 -6 3 3 2 -2
-4 8 7 -6 3 3 2 0
0 10 7 -5 4 4 2 0
1 12 7 -4 5 5 2 0
2 13 7 -3 6 5 3 0
2 16 7 -3 7 6 5 0
3 19 8 -2 9 8 7 2
3 21 8 0 11 10 9 3
3 23 5 1 11 11 10 5
6 26 3 0 11 11 10 6
9 27 2 -2 12 11 10 7
8 23 1 -3 12 11 9 7
7 17 -3 -6 8 8 7 4
9 14 -6 -8 5 6 5 3
11 14 -6 -8 5 6 5 4
10 13 -10 -10 3 4 4 2
7 10 -12 -13 0 2 2 0
6 10 -12 -14 0 1 2 1
7 12 -12 -14 0 2 2 2
8 12 -12 -13 -2 1 2 1
10 12 -11 -12 -2 2 3 2
11 15 -11 -14 -2 1 3 2
11 18 -12 -16 -2 1 3 4
7 18 -11 -16 0 2 4 4
4 16 -12 -17 -3 1 3 3
3 14 -12 -19 -5 0 1 1
4 14 -12 -19 -6 -2 1 -2
3 14 -10 -19 -6 -3 0 -3
0 12 -8 -18 -5 -3 -2 -3
-4 7 -7 -17 -5 -3 -3 -4
-3 3 -7 -18 -7 -5 -5 -7
-3 0 -8 -20 -8 -7 -5 -8
-5 -4 -9 -21 -10 -10 -8 -11
-7 -6 -9 -21 -11 -10 -10 -12
-6 -6 -10 -22 -12 -12 -11 -13
-3 -5 -13 -23 -14 -12 -11 -13
1 -4 -14 -25 -15 -13 -12 -14
4 0 -14 -26 -15 -14 -12 -14
2 -2 -13 -25 -14 -13 -11 -13
-4 -7 -13 -25 -14 -12 -11 -14
-8 -11 -12 -25 -14 -12 -10 -12
-8 -11 -12 -24 -13 -12 -10 -12
-6 -9 -12 -24 -12 -11 -11 -13
-4 -7 -12 -23 -12 -11 -11 -13
-3 -5 -11 -23 -12 -11 -10 -13
-2 -4 -11 -23 -12 -11 -10 -13
-3 -3 -11 -23 -12 -11 -9 -13
-4 -3 -11 -23 -12 -11 -11 -14
-5 -4 -12 -25 -13 -12 -12 -15
-7 -6 -10 -23 -12 -12 -11 -14
-8 -7 -10 -24 -12 -12 -12 -14
-8 -7 -10 -23 -12 -12 -11 -14
-7 -6 -9 -23 -11 -11 -11 -14
-4 -5 -10 -23 -13 -12 -12 -15
1 -4 -10 -23 -13 -13 -12 -15
1 -5 -11 -23 -13 -13 -12 -16
-3 -6 -12 -24 -13 -12 -12 -16
-4 -6 -10 -23 -12 -11 -11 -13
-2 -5 -9 -23 -12 -12 -11 -13
-2 -4 -10 -24 -12 -12 -11 -13
-4 -5 -10 -23 -11 -11 -10 -12
-3 -5 -11 -23 -11 -11 -10 -13
-2 -5 -11 -23 -11 -11 -10 -13
-2 -6 -11 -23 -11 -11 -10 -13
-2 -6 -10 -23 -12 -12 -11 -13
-3 -7 -10 -23 -12 -11 -11 -13
-3 -7 -11 -23 -12 -11 -11 -13
-3 -6 -9 -22 -11 -11 -11 -14
-2 -5 -7 -19 -8 -10 -11 -14
0 -5 -5 -15 -6 -10 -11 -15
1 -4 0 -11 -4 -9 -12 -16
0 -5 4 -4 1 -8 -13 -17
-3 -6 9 8 10 -4 -12 -18
-4 -7 12 19 21 5 -8 -17
-7 -7 15 30 34 16 -2 -14
-9 -5 21 49 56 33 10 -7
-5 4 30 73 85 60 28 6
2 14 39 98 120 94 53 22
5 20 46 119 160 132 78 37
10 24 53 143 203 172 104 52
20 30 61 162 243 212 131 66
29 39 66 173 278 250 157 84
37 51 62 170 300 278 183 103
49 61 42 142 289 282 194 116
59 65 7 86 240 250 186 121
65 65 -40 -2 143 176 156 116
65 66 -93 -129 6 68 109 104
59 62 -140 -278 -143 -47 50 80
49 44 -177 -414 -278 -155 -18 44
37 17 -220 -529 -395 -249 -80 6
33 -3 -261 -603 -469 -305 -116 -15
36 -12 -282 -614 -482 -316 -126 -20
40 -14 -286 -587 -465 -308 -127 -21
43 -10 -283 -556 -445 -298 -126 -21
37 3 -271 -519 -416 -279 -118 -18
24 20 -246 -467 -372 -249 -105 -12
10 34 -222 -411 -325 -217 -88 -3
5 38 -205 -369 -288 -192 -75 1
5 35 -194 -336 -261 -176 -71 -2
5 33 -182 -301 -233 -157 -66 -6
1 31 -168 -265 -204 -138 -59 -5
-3 26 -153 -235 -180 -123 -54 -6
-3 21 -138 -207 -159 -110 -49 -9
0 19 -119 -179 -138 -95 -43 -10
2 18 -98 -147 -113 -78 -35 -9
4 16 -76 -116 -90 -61 -29 -8
5 13 -61 -93 -72 -50 -25 -9
2 6 -50 -75 -59 -43 -22 -9
-2 2 -39 -60 -47 -35 -18 -8
0 2 -30 -48 -37 -29 -16 -8
1 3 -22 -36 -28 -22 -12 -6
2 1 -18 -29 -23 -19 -12 -6
1 -3 -15 -25 -20 -17 -12 -8
1 -3 -13 -24 -18 -16 -12 -8
1 -4 -11 -21 -16 -16 -11 -8
-2 -5 -10 -19 -14 -15 -12 -9
-3 -6 -9 -17 -14 -14 -11 -9
-2 -6 -8 -14 -12 -12 -10 -9
-2 -5 -8 -13 -11 -12 -10 -9
-2 -5 -8 -12 -10 -12 -10 -9
1 -3 -6 -10 -10 -12 -10 -8
5 1 -3 -6 -7 -9 -8 -6
9 3 0 -4 -5 -8 -7 -5
8 1 0 -3 -4 -8 -7 -5
2 -6 0 -3 -4 -9 -7 -7
-6 -12 0 -3 -5 -9 -8 -9
-8 -13 0 -2 -5 -9 -9 -10
-6 -12 0 0 -4 -9 -9 -11
-5 -11 1 2 -2 -8 -8 -9
-4 -9 1 2 0 -7 -7 -8
-2 -7 2 4 1 -7 -7 -8
0 -7 3 6 2 -6 -6 -7
-3 -9 4 6 2 -6 -7 -8
-4 -8 4 7 3 -5 -7 -8
-3 -8 7 10 4 -3 -4 -6
0 -8 6 10 4 -4 -6 -7
1 -9 6 10 5 -4 -7 -7
1 -8 6 11 6 -4 -6 -7
1 -8 5 11 5 -5 -7 -8
1 -9 4 9 4 -6 -8 -9
0 -8 5 10 5 -5 -8 -8
0 -8 7 13 7 -3 -6 -7
0 -9 8 15 8 -2 -5 -6
1 -10 8 15 8 -3 -6 -7
1 -9 9 16 9 -2 -6 -8
2 -8 10 18 11 0 -4 -7
4 -7 11 20 12 1 -3 -6
5 -6 12 21 13 2 -3 -6
2 -7 11 21 12 1 -4 -6
-2 -8 11 22 12 2 -3 -5
3 -5 12 22 13 2 -3 -5
6 -2 13 25 16 4 -2 -4
4 -4 15 27 17 4 1 -3
2 -6 15 28 17 4 1 -3
4 -5 15 29 18 5 1 -3
4 -5 16 30 19 5 1 -4
1 -9 15 29 18 4 -2 -6
-2 -9 16 30 19 5 -2 -7
0 -7 17 32 21 6 0 -6
1 -6 16 33 21 6 1 -4
1 -7 15 34 21 6 2 -2
1 -7 15 36 23 8 1 -2
3 -6 18 39 24 9 2 0
6 -4 20 43 27 11 4 1
10 -2 22 45 29 13 6 2
9 -2 21 45 28 12 6 2
4 -6 20 45 28 12 5 1
1 -7 21 47 29 12 6 1
3 -5 21 48 30 12 6 1
6 -3 22 49 31 12 6 2
5 -4 20 51 31 13 6 3
5 -3 22 53 33 15 7 3
7 0 25 56 35 16 9 4
7 0 26 58 37 18 10 4
6 -3 26 58 37 17 9 4
7 -3 25 59 37 17 8 4
10 1 26 62 39 19 10 6
10 1 26 64 42 21 12 7
7 -2 26 65 42 21 12 7
6 -2 26 66 42 20 11 6
6 0 26 68 43 21 12 7
7 1 27 70 45 21 12 8
9 4 30 73 47 23 15 11
9 5 31 75 48 25 16 12
7 3 32 78 51 27 17 12
7 1 31 80 51 26 17 11
9 3 31 82 52 27 17 12
11 5 32 85 53 28 18 13
11 6 32 86 54 28 17 12
10 5 33 88 55 29 19 13
9 4 33 90 55 29 20 15
8 6 33 91 56 30 19 15
11 9 34 93 58 31 21 16
14 11 35 96 61 33 23 19
16 11 35 97 61 32 22 18
17 11 36 99 61 32 22 18
17 10 36 100 61 32 23 19
15 9 36 101 61 32 23 20
12 8 35 100 60 30 21 18
11 9 34 100 60 30 21 17
13 11 35 102 60 30 22 18
15 13 36 103 60 31 22 19
16 13 36 104 59 30 21 19
16 13 37 105 58 30 21 19
16 12 38 106 59 30 23 21
18 13 38 105 59 30 23 20
18 13 37 105 59 28 23 20
17 13 36 103 56 26 20 19
17 14 37 102 55 25 19 19
18 15 36 100 54 23 18 19
16 14 35 99 52 20 18 18
15 13 35 98 50 19 17 17
15 12 36 97 49 19 16 17
14 11 36 96 48 18 15 17
13 10 35 94 46 16 13 15
15 11 35 92 44 14 11 14
17 12 35 91 42 13 11 15
19 14 34 90 39 12 11 15
19 14 34 88 37 10 10 14
17 13 32 85 34 7 8 12
14 11 31 81 32 6 6 11
13 11 32 80 31 5 6 11
15 12 33 79 31 4 7 12
15 10 33 78 30 3 7 11
14 8 33 76 28 2 6 10
13 8 33 74 27 1 5 9
13 8 31 71 25 0 3 9
14 6 29 68 23 -3 0 7
15 7 28 65 21 -4 -2 7
16 10 28 63 19 -5 -2 6
16 11 29 62 18 -4 0 6
13 8 28 59 17 -5 -2 5
10 4 27 56 16 -7 -4 4
9 3 27 54 16 -6 -4 4
8 3 26 52 15 -7 -4 2
7 2 26 50 16 -7 -4 2
6 2 25 48 15 -6 -3 1
7 3 26 47 16 -5 -2 2
9 5 24 43 15 -6 -4 1
9 6 24 40 15 -5 -3 2
10 6 24 38 14 -4 -3 2
9 6 23 36 13 -3 -2 1
8 4 22 34 13 -3 -2 1
6 2 21 30 12 -3 -3 0
6 1 20 27 11 -3 -3 -2
6 2 20 26 11 -2 -3 -2
5 2 20 25 12 1 -2 -2
2 -2 18 23 10 0 -3 -3
0 -4 16 19 9 -2 -4 -4
1 -3 15 17 9 -2 -3 -3
3 0 15 16 10 0 -2 -2
5 2 15 14 10 0 -2 -2
5 2 15 13 10 1 -2 -2
4 1 14 11 9 0 -2 -3
0 -2 13 10 7 0 -2 -3
-3 -4 14 8 8 2 0 -3
-4 -3 13 7 6 1 -2 -4
-4 -4 12 5 5 0 -3 -5
-5 -5 11 4 5 0 -3 -6
-2 -4 10 2 4 -2 -3 -6
1 -2 11 1 4 0 -3 -6
2 0 10 -2 3 -2 -3 -6
1 0 9 -2 3 0 -3 -6
0 -2 8 -4 2 -2 -4 -7
-3 -3 8 -4 2 -3 -5 -7
-3 -3 9 -5 3 -3 -4 -7
0 -2 9 -5 2 -2 -3 -6
-3 -4 9 -5 1 -2 -3 -6
-6 -7 7 -6 -2 -4 -5 -7
-8 -8 7 -6 -2 -4 -5 -6
-7 -5 7 -6 -2 -4 -5 -7
-6 -4 8 -5 1 -2 -3 -5
-5 -2 9 -6 2 -2 -2 -4
-3 0 9 -6 2 0 0 -3
1 0 9 -6 2 0 -2 -4
-2 -4 7 -8 0 -3 -4 -7
-6 -6 6 -8 0 -4 -6 -7
-8 -5 8 -6 1 -2 -4 -5
-5 -2 8 -6 1 -3 -3 -5
-4 -2 6 -7 -2 -4 -4 -6
-5 -2 7 -7 -2 -3 -4 -5
-4 0 8 -7 1 -2 -4 -6
0 1 10 -7 2 0 -2 -5
-2 1 9 -6 1 0 -2 -5
-4 0 9 -5 1 0 -2 -5
-5 0 8 -5 1 0 -3 -5
-4 1 8 -4 2 1 -2 -4
-2 1 6 -5 1 0 -2 -5
-3 1 5 -6 0 -2 -4 -6
-4 0 5 -6 -2 -3 -5 -7
-5 -2 6 -5 1 -2 -3 -5
-5 -2 7 -4 2 0 -2 -4
-5 1 6 -4 2 0 -2 -4
-3 3 8 -2 3 1 0 -4
0 4 9 0 5 2 1 -2
-2 4 9 0 6 3 1 -2
-4 2 9 0 5 3 0 -2
-7 0 9 1 4 2 0 -3
-9 -3 8 1 5 2 0 -3
-9 -2 9 0 5 3 1 -2
-5 0 8 0 4 3 0 -4
-2 1 7 0 4 3 0 -5
-4 1 9 1 6 4 1 -4
-6 1 9 1 6 5 2 -4
-5 1 9 3 7 5 2 -4
-4 1 9 3 7 5 2 -4
-4 1 8 3 7 4 2 -4
-4 2 7 2 7 4 1 -4
-4 4 10 5 9 6 3 -2
-4 4 10 5 10 7 4 -2
-5 3 9 5 9 6 3 -3
-3 4 10 4 9 6 3 -3
-2 5 10 5 10 7 4 -2
-4 2 9 5 9 6 2 -3
-7 -2 9 5 9 6 2 -3
-5 0 9 5 10 6 2 -3
-4 2 9 5 10 7 3 -2
-5 2 9 6 11 8 4 0
-5 1 8 6 10 7 3 0
-5 1 8 5 9 7 3 -2
-4 2 7 4 8 6 2 -4
-4 2 7 5 9 7 2 -4
-4 3 8 5 10 8 3 -4
-3 4 8 5 10 7 3 -4
-3 4 8 5 10 7 4 -3
-3 3 8 6 11 7 3 -2
-5 3 7 5 11 7 3 -2
-5 3 7 5 12 8 3 -2
-3 3 8 5 12 7 3 -2
0 2 7 4 10 6 2 -3
-3 2 7 5 9 7 3 -2
-4 2 7 5 9 8 4 0
-4 2 7 4 9 8 4 0
-4 1 8 4 9 8 4 0
-3 1 6 3 8 7 3 -2
1 3 7 4 10 7 4 0
1 6 7 4 10 8 4 1
-3 5 6 4 9 7 4 0
-5 3 4 3 8 6 2 -3
-5 2 4 2 8 6 2 -2
-6 2 4 1 7 5 1 -3
-5 1 4 0 6 5 0 -4
-5 1 4 -2 6 5 0 -5
-5 1 5 0 5 5 1 -5
-5 2 6 2 7 6 3 -4
-3 3 7 2 9 6 3 -3
0 5 6 1 8 6 1 -4
2 5 5 0 7 6 1 -3
-2 4 4 0 6 4 1 -4
-5 2 4 -2 5 4 0 -5
-7 0 3 -4 3 2 -2 -6
-9 -3 3 -5 2 1 -4 -7
-8 -3 3 -5 2 1 -4 -7
-7 0 3 -5 3 2 -3 -6
-9 -2 3 -4 3 2 -3 -6
-10 -4 2 -6 2 1 -3 -6
-9 -3 1 -7 0 1 -4 -8
-8 0 1 -7 1 1 -4 -7
-6 1 1 -7 1 1 -4 -7
-5 1 1 -7 0 2 -4 -7
-4 3 0 -7 0 1 -4 -7
-3 5 1 -7 0 1 -4 -6
-3 5 1 -7 1 1 -4 -6
-4 4 2 -6 1 1 -3 -7
-5 3 1 -8 0 0 -4 -8
-6 2 1 -8 0 0 -4 -8
-6 1 0 -9 -2 0 -5 -9
-6 0 0 -9 -2 0 -5 -8
-7 2 0 -9 -2 -2 -5 -8
-6 3 0 -9 -2 -2 -5 -7
-6 2 -2 -10 -4 -3 -6 -8
-6 0 0 -10 -4 -3 -6 -9
-6 1 -2 -11 -4 -4 -6 -9
-6 2 0 -10 -4 -3 -5 -8
-7 2 0 -10 -4 -3 -7 -8
-7 1 0 -10 -3 -3 -6 -8
-7 0 -2 -10 -4 -4 -6 -9
-4 2 -3 -11 -5 -4 -7 -9
0 5 -2 -11 -4 -3 -6 -8
-2 5 0 -11 -4 -3 -6 -8
-6 1 -3 -13 -6 -5 -8 -10
-8 -2 -3 -13 -6 -5 -8 -10
-7 0 -2 -13 -6 -4 -7 -9
-6 1 -2 -12 -6 -4 -7 -10
-6 1 -2 -13 -6 -5 -7 -11
-7 1 -2 -13 -6 -4 -7 -11
-8 1 -3 -13 -6 -5 -8 -12
-8 1 -3 -13 -6 -5 -9 -11
-7 1 -3 -13 -7 -5 -9 -11
-7 1 -3 -13 -7 -5 -9 -11
-7 2 -4 -14 -8 -6 -10 -12
-8 2 -3 -14 -7 -6 -9 -11
-9 1 -4 -14 -7 -7 -10 -11
-9 0 -2 -13 -7 -6 -9 -11
-8 1 0 -12 -6 -5 -8 -11
-6 2 0 -13 -6 -4 -8 -11
-7 0 -2 -13 -7 -5 -8 -10
-8 -3 -3 -14 -9 -7 -8 -11
-7 -2 -4 -15 -10 -8 -9 -12
-7 1 -4 -15 -9 -7 -8 -11
-8 2 -4 -15 -8 -6 -9 -11
-9 1 -5 -15 -9 -6 -10 -11
-7 2 -5 -15 -8 -5 -10 -11
-6 3 -3 -13 -6 -4 -8 -9
-7 2 -3 -14 -7 -5 -9 -10
-9 0 -2 -13 -7 -6 -8 -10
-8 1 -4 -14 -7 -7 -8 -10
-7 1 -4 -13 -6 -6 -8 -10
-7 2 -4 -13 -8 -6 -9 -11
-6 2 -4 -13 -9 -6 -9 -11
-6 2 -5 -14 -10 -6 -10 -12
-9 1 -5 -15 -10 -7 -11 -13
-9 0 -5 -15 -9 -7 -11 -13
-8 2 -4 -13 -8 -6 -10 -12
-6 4 -3 -13 -7 -6 -10 -12
-7 4 1 -12 -6 -4 -8 -10
-7 5 1 -11 -5 -3 -8 -10
-6 7 0 -11 -5 -2 -7 -9
-5 8 0 -9 -3 0 -6 -7
-5 9 1 -10 -3 0 -6 -7
-6 9 3 -9 -3 0 -5 -6
-6 8 3 -9 -4 -2 -6 -6
-7 9 5 -7 -2 1 -4 -6
-5 11 6 -6 -2 2 -4 -5
-7 9 5 -7 -3 1 -5 -6
-9 6 6 -7 -2 0 -5 -6
-7 7 6 -7 -2 1 -4 -7
-4 10 6 -6 0 2 -4 -5
-4 10 7 -4 2 3 -3 -4
-4 10 7 -3 3 5 -2 -3
-3 12 7 0 4 7 2 -2
0 16 8 1 6 8 4 1
1 20 8 2 8 10 5 2
2 23 7 2 9 12 7 4
4 24 5 1 9 12 8 5
5 23 3 1 8 11 7 4
3 21 0 -3 5 9 5 2
2 16 -3 -6 3 6 2 -2
3 12 -6 -7 2 4 0 -3
4 11 -7 -8 0 2 -2 -3
4 11 -8 -9 -3 1 -3 -3
4 11 -9 -10 -4 1 -4 -3
4 10 -10 -12 -4 0 -4 -3
4 9 -10 -12 -4 1 -4 -3
5 9 -11 -12 -4 1 -4 -3
7 11 -10 -12 -4 2 -3 0
5 10 -9 -13 -6 1 -3 1
2 10 -10 -15 -7 1 -3 0
1 12 -9 -14 -6 2 0 1
1 14 -8 -14 -5 1 0 2
-2 12 -8 -16 -7 0 -3 0
-4 9 -8 -17 -8 -3 -5 -2
-5 5 -6 -16 -8 -4 -7 -4
-6 3 -5 -16 -9 -5 -9 -7
-6 1 -5 -15 -10 -6 -10 -9
-6 -3 -6 -16 -11 -6 -11 -10
-7 -6 -7 -17 -12 -7 -11 -11
-9 -9 -10 -19 -13 -9 -12 -13
-9 -10 -9 -18 -13 -9 -13 -12
-8 -10 -9 -20 -15 -11 -15 -14
-8 -11 -9 -20 -15 -11 -15 -14
-8 -12 -10 -20 -17 -12 -16 -15
-8 -12 -10 -20 -17 -12 -16 -15
-8 -11 -9 -19 -16 -12 -16 -15
-8 -11 -9 -19 -16 -11 -16 -15
-9 -12 -9 -20 -17 -12 -16 -16
-10 -12 -10 -20 -17 -13 -17 -17
-12 -12 -9 -19 -16 -12 -17 -17
-11 -12 -9 -19 -16 -13 -18 -17
-10 -11 -8 -18 -15 -12 -17 -17
-10 -10 -8 -18 -14 -11 -16 -16
-10 -10 -9 -18 -14 -11 -15 -15
-11 -11 -9 -18 -15 -11 -15 -14
-11 -11 -8 -18 -15 -11 -15 -13
-10 -11 -7 -18 -15 -11 -15 -13
-9 -11 -6 -18 -14 -10 -14 -12
-10 -11 -5 -17 -13 -9 -13 -11
-11 -12 -7 -17 -14 -10 -14 -11
-12 -13 -6 -16 -13 -9 -14 -11
-9 -12 -5 -16 -13 -9 -14 -11
-8 -12 -5 -16 -14 -9 -14 -11
-10 -13 -8 -18 -17 -12 -18 -14
-12 -15 -7 -18 -16 -12 -17 -15
-12 -13 -5 -18 -16 -13 -17 -16
-10 -13 -5 -18 -16 -13 -17 -16
-11 -13 -5 -17 -15 -11 -16 -16
-11 -12 -6 -18 -16 -12 -16 -18
-9 -12 -5 -16 -14 -10 -15 -17
-8 -12 -5 -16 -13 -9 -15 -17
-7 -11 -6 -17 -13 -9 -16 -17
-6 -10 -5 -15 -12 -9 -14 -15
-5 -9 -5 -15 -12 -10 -16 -17
-7 -11 -4 -14 -12 -11 -18 -18
-9 -13 -4 -12 -12 -12 -20 -19
-11 -14 0 -9 -11 -11 -19 -19
-12 -14 4 -5 -9 -10 -19 -20
-12 -14 8 5 -2 -7 -19 -21
-13 -14 13 17 8 -2 -17 -20
-13 -15 15 29 19 6 -13 -19
-11 -12 19 42 33 18 -7 -15
-9 -5 27 63 58 38 10 -6
-6 5 35 88 90 67 29 8
0 15 43 110 127 103 55 24
5 21 51 133 168 143 81 39
10 24 60 156 210 183 107 54
14 27 68 173 247 221 132 68
21 35 71 181 279 257 158 88
31 46 64 174 295 281 182 107
43 53 42 140 277 278 190 119
54 59 6 77 218 236 178 122
62 64 -40 -18 111 153 145 117
61 65 -92 -153 -32 42 94 102
49 53 -137 -303 -180 -74 29 72
32 27 -178 -435 -312 -182 -40 32
24 2 -221 -541 -419 -267 -98 -3
27 -12 -259 -601 -478 -311 -127 -19
33 -17 -277 -601 -482 -316 -134 -24
36 -20 -279 -571 -464 -308 -135 -25
32 -17 -275 -543 -445 -299 -135 -25
23 -6 -260 -503 -414 -279 -128 -23
11 13 -233 -446 -365 -246 -109 -13
2 26 -208 -392 -317 -212 -91 -4
0 28 -195 -353 -285 -190 -81 -3
-2 25 -185 -320 -260 -174 -79 -8
-4 24 -172 -284 -230 -154 -71 -9
-5 24 -158 -252 -203 -136 -64 -9
-5 21 -145 -224 -182 -122 -61 -11
-4 17 -130 -194 -159 -108 -55 -11
-4 16 -111 -164 -136 -92 -48 -11
-4 12 -92 -134 -113 -77 -43 -12
-4 7 -71 -105 -91 -62 -35 -12
-4 4 -55 -80 -71 -49 -30 -12
-4 1 -43 -63 -58 -40 -26 -11
-4 -3 -33 -49 -47 -32 -22 -10
-5 -3 -25 -36 -37 -26 -19 -9
-6 -3 -19 -28 -31 -22 -18 -8
-6 -4 -15 -22 -26 -19 -17 -8
-6 -6 -12 -19 -24 -19 -17 -10
-7 -9 -10 -15 -22 -17 -17 -10
-7 -11 -9 -13 -22 -17 -18 -11
-6 -10 -7 -10 -19 -16 -17 -11
-5 -10 -7 -8 -17 -15 -16 -13
-5 -11 -5 -6 -15 -14 -16 -12
-5 -12 -5 -5 -15 -14 -17 -13
-5 -11 -3 -3 -12 -13 -16 -12
-5 -11 -3 -2 -12 -12 -16 -12
-6 -12 -3 0 -11 -11 -17 -12
-5 -11 0 3 -10 -10 -15 -10
-5 -11 1 5 -8 -9 -14 -9
-6 -13 1 5 -8 -9 -13 -9
-5 -13 2 6 -8 -9 -13 -10
-5 -13 3 8 -6 -8 -12 -10
-5 -13 2 8 -7 -9 -13 -11
-6 -14 2 8 -6 -8 -13 -12
-6 -12 2 8 -6 -9 -14 -12
-5 -10 2 9 -5 -9 -14 -12
-4 -9 4 11 -4 -8 -14 -12
-4 -11 5 13 -3 -8 -14 -12
-4 -11 6 14 -2 -7 -14 -13
-5 -11 9 17 2 -5 -12 -11
-6 -12 9 17 2 -4 -12 -12
-6 -12 8 18 2 -5 -13 -13
-7 -13 8 19 3 -4 -13 -12
-7 -13 7 19 3 -5 -14 -12
-5 -13 7 19 3 -5 -14 -11
-5 -13 7 20 3 -4 -13 -9
-5 -13 8 21 4 -3 -12 -8
-4 -12 10 24 6 -2 -11 -7
0 -12 12 25 7 1 -9 -6
-2 -12 13 26 8 1 -9 -6
-4 -13 13 27 9 1 -9 -6
-4 -13 13 28 9 2 -9 -6
-2 -12 13 29 9 2 -9 -7
-2 -11 14 30 10 1 -8 -7
-4 -11 13 30 10 0 -10 -9
-4 -11 12 30 10 0 -11 -10
0 -8 13 31 11 1 -11 -10
0 -8 14 33 13 2 -10 -9
-4 -11 14 34 13 3 -10 -10
-4 -11 15 35 13 3 -10 -10
-2 -9 18 38 16 5 -8 -9
1 -9 17 38 16 4 -8 -9
1 -10 17 40 16 4 -8 -7
0 -9 17 42 18 5 -7 -6
-3 -9 17 42 19 6 -7 -5
-4 -11 16 42 18 6 -8 -6
-5 -12 17 44 20 7 -7 -5
-3 -10 19 46 22 8 -5 -3
0 -10 19 47 23 9 -5 -2
-3 -12 19 50 23 9 -5 -3
-4 -12 21 52 24 10 -4 -3
-3 -11 21 54 26 11 -3 -2
-2 -9 21 55 27 12 -2 0
0 -9 22 56 28 13 0 1
0 -9 21 57 28 13 0 1
0 -9 20 57 28 13 0 2
0 -7 20 59 29 13 1 3
1 -5 23 62 31 16 4 4
3 -3 24 64 33 17 5 5
4 -4 24 66 34 18 5 5
3 -4 24 67 35 18 5 5
3 -4 23 69 35 18 5 4
5 -4 23 70 35 17 4 4
6 -3 25 72 37 19 6 6
6 -2 25 74 37 20 6 6
5 0 25 75 39 21 7 6
5 -2 26 78 40 22 8 7
3 -3 28 81 43 23 8 7
5 0 30 84 45 24 9 8
10 3 32 87 48 26 12 10
12 4 32 90 50 27 13 11
10 3 32 91 50 27 12 10
7 1 30 91 50 26 10 9
6 0 29 92 50 26 10 8
5 0 29 93 50 26 10 9
8 3 30 95 51 27 11 11
10 6 32 98 53 28 13 13
10 5 32 100 54 29 14 13
9 4 34 102 55 31 15 15
11 6 34 103 56 31 16 16
12 7 36 106 58 32 18 18
14 9 35 106 58 32 17 17
14 9 35 107 58 32 17 17
12 8 34 108 58 30 17 17
10 7 34 109 58 31 16 17
11 8 35 111 58 31 17 18
12 9 35 111 58 30 17 19
14 10 35 111 58 30 16 19
16 10 35 111 58 30 16 19
14 11 36 113 58 30 17 20
14 12 34 112 56 28 15 18
16 12 35 112 56 27 15 19
17 10 34 110 54 24 14 19
15 9 34 108 52 23 13 19
15 10 35 108 51 23 13 19
15 11 34 107 49 21 11 17
15 11 33 105 47 19 9 16
15 10 34 105 46 18 9 15
15 10 33 104 44 17 8 14
15 10 33 103 43 16 6 13
15 9 32 99 39 13 5 13
14 8 32 99 38 12 5 13
15 9 31 98 37 10 4 13
16 10 30 95 35 7 3 13
14 9 28 91 32 6 1 12
13 8 28 89 30 4 -2 10
14 8 29 88 28 3 -3 9
13 8 29 86 26 1 -4 7
9 4 29 84 24 -2 -6 6
8 4 28 80 23 -4 -8 4
10 6 29 79 23 -3 -7 4
12 7 30 78 22 -3 -7 4
12 6 29 75 20 -4 -8 4
13 5 27 72 19 -6 -9 4
17 7 26 70 17 -7 -8 4
18 9 25 68 15 -7 -8 5
13 7 24 65 14 -7 -9 4
8 4 23 63 14 -6 -9 3
8 4 23 61 14 -6 -9 3
9 4 23 60 14 -6 -8 3
8 2 24 58 14 -6 -9 2
6 0 24 55 13 -7 -11 0
7 -2 23 52 12 -8 -11 1
7 -2 22 49 12 -7 -10 1
4 -3 21 47 12 -5 -9 2
5 -3 21 45 12 -4 -8 2
7 0 21 45 13 -2 -6 3
6 1 20 42 14 1 -5 3
4 -2 19 38 12 2 -5 2
4 -2 19 36 12 1 -5 3
4 0 19 35 13 3 -4 3
4 1 17 32 12 2 -5 2
4 2 16 30 11 2 -4 1
3 2 14 27 10 2 -4 0
1 0 14 25 10 2 -5 0
-2 -3 12 22 8 2 -7 -3
-3 -4 11 21 8 1 -7 -4
-3 -4 12 19 7 1 -7 -5
-2 -3 12 17 6 2 -6 -5
0 -4 12 16 7 3 -5 -5
-2 -4 11 14 6 3 -5 -4
-3 -4 11 14 7 3 -4 -3
-2 -4 9 13 6 2 -4 -4
0 -3 10 12 7 3 -3 -3
0 -2 9 10 5 2 -4 -4
-4 -4 7 7 2 1 -5 -5
-6 -7 7 6 2 1 -7 -5
-5 -6 7 5 3 1 -6 -4
-3 -4 8 6 3 2 -5 -3
-2 -5 8 6 4 3 -5 -2
-3 -6 8 4 3 3 -5 -3
-3 -7 9 4 3 3 -4 -2
0 -5 8 3 2 2 -5 -2
2 -4 7 2 1 2 -5 -2
1 -4 6 2 2 3 -4 0
-3 -6 5 2 1 2 -4 -2
-6 -7 6 2 1 2 -4 0
-6 -5 7 2 2 2 -4 0
-4 -4 7 3 2 2 -4 -2
-5 -5 6 2 2 1 -4 -2
-6 -6 4 0 1 0 -6 -4
-5 -5 5 1 3 1 -4 -3
-4 -3 6 3 4 3 -3 0
-5 -4 5 2 3 2 -4 -2
-6 -5 5 2 2 2 -4 -2
-5 -4 6 2 2 2 -4 -2
-3 -3 6 4 4 5 -3 1
-2 -3 7 4 5 7 0 2
-3 -4 9 5 6 7 1 2
-4 -5 8 5 5 7 1 0
-5 -6 9 5 6 7 1 0
-6 -6 8 4 6 7 1 0
-4 -5 7 5 5 6 0 -2
-2 -3 8 5 6 6 0 0
-2 0 7 5 6 6 0 0
-2 -2 6 6 7 7 1 1
-4 -3 5 7 7 7 1 2
-5 -3 6 7 7 7 0 1
-5 -4 8 7 7 6 0 1
-3 -4 9 8 9 8 1 2
-2 -4 8 8 9 8 1 2
-4 -5 7 9 10 8 2 4
-5 -5 7 10 10 9 3 5
-4 -4 8 10 10 9 3 5
-2 -3 7 9 10 10 3 5
0 -2 6 9 10 10 3 5
0 0 7 10 11 11 4 5
0 0 8 12 12 12 5 5
-3 0 9 13 14 13 5 5
-4 -2 9 12 13 12 4 3
-5 -3 9 11 12 11 4 2
-4 -2 8 12 12 11 4 2
-3 -2 9 14 13 12 4 2
-4 -2 9 13 13 10 3 1
-6 -3 9 13 13 10 3 1
-6 -3 9 14 15 12 4 3
-5 -3 9 15 16 14 6 5
-4 -2 9 15 16 13 6 5
0 -2 9 15 15 13 5 5
1 -2 9 15 16 13 5 4
0 -2 9 14 16 14 5 3
1 0 10 16 18 16 7 6
1 1 10 16 17 16 8 6
-2 0 8 14 16 15 7 4
-4 -3 7 14 16 14 6 4
-3 -2 7 14 16 14 5 5
0 1 8 15 17 16 8 7
1 1 9 15 18 17 9 7
-3 -2 10 15 18 17 10 7
-5 -5 10 15 18 17 9 6
-4 -5 9 14 17 16 8 5
-3 -3 9 15 17 16 9 6
-3 -3 8 14 16 16 9 6
-2 -3 8 14 16 16 9 6
1 1 8 13 16 15 8 5
1 0 8 13 16 14 7 5
-3 -3 7 11 15 12 5 3
-4 -3 7 12 16 13 6 4
-4 -2 6 11 16 13 6 4
-5 -2 7 12 16 14 7 4
-5 -2 7 12 16 14 6 4
-4 -2 7 11 15 13 5 2
-3 -2 7 11 14 12 4 2
-2 -2 7 10 14 12 4 2
-2 -2 6 10 14 13 4 2
-2 0 4 8 13 11 4 2
-3 -3 5 9 13 12 5 4
-3 -3 7 8 13 12 6 4
-2 -3 9 9 14 14 7 5
0 -4 9 9 14 13 6 5
-3 -7 7 8 13 13 5 4
-4 -8 5 6 11 11 3 2
-3 -6 5 6 11 11 3 2
-3 -4 6 7 11 12 3 2
-4 -3 7 6 10 12 4 2
-2 0 5 4 9 10 2 1
2 1 5 4 10 9 2 1
3 1 5 4 10 10 2 2
1 1 5 4 9 10 2 2
0 1 6 5 10 11 3 3
-3 -2 7 4 10 11 3 4
-5 -5 6 3 8 9 2 3
-7 -8 3 1 5 6 1 2
-7 -7 1 0 5 6 2 2
-7 -7 2 1 6 7 2 2
-6 -6 3 0 6 7 1 1
-6 -6 4 1 7 8 1 1
-4 -6 5 2 8 9 2 2
-3 -5 6 2 8 9 2 1
-3 -6 6 3 9 10 2 1
-5 -7 5 2 9 10 3 1
-6 -8 3 0 7 8 1 0
-7 -8 2 -3 5 6 0 -2
-5 -6 2 -2 6 7 2 0
-3 -4 3 0 7 9 3 2
-3 -4 3 -2 6 8 2 1
-4 -4 3 -3 4 6 1 -2
-5 -5 4 -2 5 6 1 -2
-4 -6 4 -2 5 6 1 -2
-4 -6 5 -2 5 7 1 -2
-3 -6 3 -3 4 6 0 -3
-3 -6 3 -3 4 6 0 -3
-3 -6 2 -4 3 5 -2 -3
-3 -7 2 -4 3 4 -2 -2
-3 -8 0 -6 2 3 -3 -4
-2 -7 0 -7 0 1 -4 -6
-2 -7 2 -7 0 1 -4 -6
-4 -7 4 -6 1 2 -3 -5
-5 -7 5 -6 2 3 -2 -4
-4 -7 5 -5 3 4 -2 -3
-3 -7 5 -4 4 5 0 -3
-2 -6 5 -4 4 5 1 -2
0 -5 4 -5 3 5 1 -2
0 -5 3 -5 3 5 2 0
-2 -5 3 -5 3 5 2 0
-5 -6 3 -7 1 2 -2 -3
-9 -9 3 -7 0 1 -3 -4
-9 -10 4 -6 1 3 -2 -3
-7 -9 4 -6 1 3 -2 -3
-5 -8 4 -6 1 2 -2 -2
-4 -8 4 -6 1 3 -2 -2
-4 -8 4 -6 1 4 0 0
-4 -9 3 -6 1 4 0 0
-3 -8 3 -7 1 4 0 -2
-2 -7 2 -8 0 3 -2 -2
-4 -7 2 -8 -2 2 -3 -3
-6 -7 2 -8 -2 2 -3 -4
-5 -6 2 -8 0 1 -3 -5
-5 -7 2 -9 -2 1 -3 -5
-5 -9 3 -8 -2 1 -4 -7
-3 -7 4 -7 0 1 -4 -6
0 -7 5 -6 0 1 -4 -6
-3 -9 4 -7 -2 1 -5 -7
-5 -10 4 -7 0 2 -4 -5
-4 -8 3 -7 1 2 -3 -3
-5 -9 3 -7 0 3 -2 -2
-7 -9 3 -8 -2 3 -2 0
-7 -7 5 -8 -2 3 -2 -3
-5 -5 6 -6 0 4 0 -2
-5 -5 6 -5 1 5 1 0
-5 -5 6 -5 2 4 0 -2
-5 -3 6 -5 2 4 1 -4
-4 -2 6 -4 3 5 1 -3
-5 0 7 -3 4 6 1 -2
-5 0 7 -3 5 7 1 0
-3 2 9 -3 4 7 2 1
0 4 11 0 5 8 3 4
1 5 11 -2 5 8 4 4
-3 2 11 -2 5 8 4 4
-3 2 12 -2 5 8 4 5
-2 2 13 1 6 8 4 6
-3 2 13 1 7 9 5 6
-4 2 14 1 7 9 5 6
-2 5 14 3 8 11 7 7
1 8 13 4 9 11 8 7
1 10 13 4 9 12 9 8
0 11 13 4 11 14 10 9
0 15 14 5 13 15 11 10
3 19 13 7 15 17 13 13
5 21 9 5 15 17 14 12
6 20 8 4 14 17 14 12
10 21 7 4 14 17 14 12
12 19 6 3 13 16 13 11
9 12 3 -3 9 12 9 7
5 6 0 -7 5 8 5 3
3 7 1 -6 5 9 6 4
5 9 0 -7 5 10 6 5
6 8 -3 -8 4 9 6 5
5 6 -4 -9 4 9 7 6
4 4 -3 -8 3 9 8 7
4 3 -2 -9 3 9 8 9
4 6 -4 -9 3 7 7 9
5 10 -4 -10 2 7 8 9
6 12 -4 -11 2 8 9 10
5 13 -4 -13 1 7 9 9
2 12 -4 -14 0 6 7 8
-2 7 -4 -15 -3 4 5 6
-5 3 -4 -15 -3 3 2 2
-6 1 0 -14 -3 3 2 0
-5 0 2 -14 -4 2 0 -2
-5 -4 1 -15 -6 -2 -3 -4
-6 -7 0 -16 -7 -4 -5 -5
-5 -10 -4 -18 -9 -6 -7 -7
-5 -12 -3 -18 -9 -6 -8 -9
-7 -14 -3 -18 -10 -7 -9 -10
-9 -16 -4 -18 -10 -7 -9 -10
-8 -15 -5 -20 -11 -8 -9 -10
-5 -13 -4 -19 -11 -8 -9 -9
-4 -12 -3 -19 -11 -7 -8 -9
-5 -12 -2 -19 -11 -7 -8 -9
-6 -11 -2 -18 -10 -7 -7 -8
-6 -10 0 -17 -9 -5 -6 -8
-5 -9 0 -17 -8 -4 -6 -8
-5 -9 0 -17 -7 -4 -6 -7
-7 -9 0 -17 -7 -4 -6 -7
-8 -11 -2 -17 -8 -4 -6 -8
-6 -11 -2 -17 -9 -5 -7 -8
-4 -10 0 -16 -9 -5 -6 -7
-6 -12 0 -16 -10 -5 -7 -8
-9 -14 -2 -18 -11 -7 -9 -10
-9 -13 0 -18 -10 -7 -8 -10
-7 -12 1 -15 -8 -4 -5 -8
-6 -11 1 -16 -9 -4 -6 -8
-6 -12 1 -16 -9 -4 -6 -8
-6 -12 1 -16 -9 -4 -6 -8
-6 -11 2 -15 -8 -3 -5 -7
-6 -10 2 -15 -8 -3 -5 -7
-6 -11 2 -16 -9 -4 -6 -8
-7 -11 1 -16 -10 -5 -7 -9
-7 -12 2 -16 -9 -5 -7 -10
-8 -12 2 -16 -8 -4 -6 -9
-6 -12 1 -15 -8 -4 -6 -8
-5 -12 1 -15 -8 -4 -7 -8
-7 -12 2 -15 -8 -3 -7 -7
-8 -12 2 -14 -7 -3 -7 -7
-6 -11 1 -15 -8 -4 -7 -8
-5 -11 1 -15 -8 -4 -7 -8
-3 -10 3 -13 -7 -5 -8 -9
-2 -10 5 -9 -6 -4 -9 -10
-4 -10 8 -5 -3 -4 -10 -12
-8 -12 12 1 1 -4 -10 -13
-10 -13 15 10 6 -2 -12 -17
-10 -14 19 21 17 6 -10 -17
-9 -13 22 32 30 16 -5 -14
-6 -8 26 48 50 32 7 -7
-3 1 34 69 76 55 23 4
2 10 44 91 110 88 47 18
7 20 51 108 147 127 74 34
12 25 59 128 189 170 103 53
16 27 68 147 231 213 133 69
20 32 75 161 269 256 161 87
28 44 78 168 299 294 191 108
36 55 70 156 310 315 215 129
43 60 45 115 283 302 218 138
52 65 6 47 213 246 198 138
60 71 -40 -58 93 147 155 129
57 71 -88 -194 -59 21 94 108
46 58 -127 -336 -211 -103 21 71
32 30 -161 -456 -343 -213 -52 29
25 4 -201 -551 -447 -295 -108 -4
25 -12 -237 -597 -495 -330 -133 -17
27 -19 -253 -585 -489 -327 -136 -19
28 -22 -255 -553 -468 -316 -137 -22
26 -18 -248 -523 -445 -305 -137 -24
17 -6 -231 -480 -407 -282 -128 -22
4 11 -205 -425 -357 -248 -112 -18
-3 21 -186 -377 -314 -219 -97 -12
-5 21 -176 -342 -284 -198 -90 -13
-8 15 -166 -310 -257 -182 -86 -17
-9 15 -155 -276 -228 -162 -77 -18
-9 15 -143 -243 -201 -143 -69 -17
-8 12 -132 -216 -179 -127 -64 -19
-6 10 -116 -188 -156 -112 -58 -19
-5 9 -97 -159 -134 -96 -50 -18
-3 7 -78 -130 -110 -78 -41 -16
0 6 -60 -100 -87 -62 -32 -13
2 7 -46 -76 -67 -48 -26 -11
1 4 -35 -61 -54 -38 -22 -9
0 0 -27 -49 -43 -31 -18 -8
0 -3 -20 -36 -33 -25 -15 -6
-2 -4 -14 -28 -26 -22 -13 -6
-3 -5 -10 -22 -22 -19 -12 -6
-4 -7 -6 -17 -19 -17 -12 -7
-4 -8 -4 -14 -17 -16 -12 -8
-3 -9 -2 -11 -15 -14 -12 -8
-2 -9 0 -9 -13 -13 -11 -8
2 -8 2 -7 -11 -12 -9 -8
2 -7 2 -6 -11 -12 -10 -8
-2 -9 2 -5 -10 -11 -10 -9
-4 -10 3 -4 -8 -10 -10 -8
-6 -10 5 1 -6 -9 -9 -7
-5 -10 5 1 -6 -9 -10 -8
-3 -9 6 2 -5 -7 -9 -8
-3 -10 8 5 -3 -6 -8 -7
-5 -12 8 6 -3 -7 -9 -9
-4 -11 8 7 -2 -6 -9 -8
-2 -9 9 9 1 -5 -7 -7
-3 -10 10 10 2 -4 -7 -6
-5 -11 10 10 2 -4 -7 -6
-4 -10 10 10 2 -4 -7 -6
-3 -10 10 12 3 -3 -6 -6
-2 -11 10 12 4 -3 -7 -7
-3 -11 11 12 4 -3 -7 -8
-3 -12 12 14 4 -3 -6 -9
-4 -12 14 17 5 -2 -5 -8
-4 -11 14 17 6 -2 -5 -8
-4 -11 15 19 7 0 -4 -8
-4 -11 14 19 7 0 -5 -7
-3 -11 12 18 7 0 -6 -6
0 -10 12 18 7 0 -6 -6
1 -9 13 20 8 1 -6 -6
1 -8 14 22 10 2 -4 -5
0 -8 14 22 11 3 -3 -5
-2 -8 15 25 13 4 -2 -4
0 -8 15 25 12 3 -3 -5
0 -8 17 26 12 3 -3 -4
0 -7 17 27 13 3 -2 -4
0 -8 17 27 12 3 -2 -4
-3 -10 17 27 14 3 -2 -5
-5 -10 17 27 14 3 -2 -5
-2 -8 18 31 16 5 1 -3
1 -7 19 32 17 7 1 -3
-3 -8 20 33 19 8 1 -3
-4 -8 20 34 19 8 1 -3
-3 -8 22 36 21 8 1 -3
-2 -9 21 36 21 8 0 -3
-2 -9 20 36 21 7 0 -4
1 -9 20 37 21 7 0 -4
2 -8 21 38 22 7 0 -2
1 -9 20 39 22 8 1 -2
-2 -9 21 43 23 9 3 1
0 -8 22 44 24 11 4 2
1 -7 23 46 26 12 5 3
1 -6 23 47 26 12 5 2
1 -6 24 49 29 14 6 2
1 -6 25 50 31 15 7 2
1 -5 25 52 31 15 6 2
1 -5 25 53 31 14 5 2
1 -5 24 54 32 14 6 3
3 -3 25 57 33 16 8 4
6 0 25 58 33 16 9 4
7 0 26 59 35 17 8 4
5 -2 26 61 36 18 8 4
2 -3 26 62 36 18 8 4
1 -4 28 65 39 20 10 5
4 -2 29 67 42 21 11 6
6 1 30 69 44 22 12 7
5 -2 30 70 44 22 12 7
3 -2 28 71 45 22 13 7
8 4 29 74 47 24 15 10
11 8 32 78 49 27 18 13
8 5 32 80 50 27 18 13
3 1 31 81 51 28 18 12
3 1 33 84 53 29 19 13
6 1 34 86 55 30 20 14
6 2 33 87 55 30 20 14
5 2 34 89 56 32 21 16
6 3 33 90 57 32 21 16
8 4 33 92 58 32 21 16
10 5 33 93 59 32 21 16
9 7 34 96 60 34 22 17
8 7 36 99 62 35 24 19
10 8 37 101 63 35 24 19
11 10 38 103 63 35 25 20
12 11 38 105 64 35 25 20
12 11 38 105 64 35 25 20
11 9 38 107 64 34 24 21
11 10 37 109 66 35 25 22
14 14 37 109 66 36 25 23
14 14 38 108 66 36 25 23
13 13 38 108 65 35 25 23
14 13 37 110 65 35 25 23
15 14 35 109 64 34 25 23
16 14 36 110 64 33 26 23
18 17 37 110 63 33 26 24
17 17 38 111 63 33 26 24
14 14 38 110 60 30 24 22
13 13 35 108 58 28 22 21
13 14 35 107 58 28 22 21
14 14 35 106 56 26 20 21
14 13 34 104 54 24 18 20
16 15 34 104 53 23 18 20
18 16 34 103 52 23 18 19
15 14 34 101 50 21 16 18
13 12 35 100 49 20 16 18
15 12 35 97 46 17 15 18
17 13 35 95 44 15 14 18
18 13 34 94 40 14 13 17
16 14 32 92 38 12 11 15
15 14 32 90 36 10 10 15
15 14 31 87 34 8 9 15
14 12 30 84 32 6 8 14
15 11 29 82 29 5 7 13
15 11 31 81 29 4 6 13
15 11 30 78 29 3 5 12
14 9 29 75 27 2 3 11
13 7 27 72 24 0 2 10
12 8 26 70 21 -2 1 10
12 9 26 68 21 -2 1 10
13 9 26 65 20 -3 1 10
13 9 26 63 19 -3 1 8
12 9 26 61 18 -3 0 7
11 8 26 59 18 -3 0 6
9 7 26 57 17 -3 0 5
7 5 25 55 17 -4 0 5
7 5 25 52 17 -4 -2 4
8 5 25 50 16 -4 -2 3
6 5 24 48 15 -5 -3 2
5 5 23 46 14 -4 -3 2
5 7 22 44 14 -3 -3 2
5 6 21 40 14 -2 -2 2
5 5 20 38 14 0 -2 2
4 3 20 37 14 1 0 2
4 3 21 35 14 2 0 2
4 2 21 33 14 2 0 3
3 1 20 31 15 3 1 3
1 0 19 29 14 3 2 3
1 1 17 26 14 2 1 1
2 1 17 25 14 2 1 1
2 1 15 22 12 2 1 1
1 1 14 20 10 2 1 1
-2 0 14 19 10 4 2 2
0 0 14 17 10 4 2 1
1 0 15 17 10 4 2 1
1 1 14 15 9 3 1 1
-2 -2 13 13 10 4 1 0
-4 -4 12 11 8 3 1 -2
-2 -2 12 11 9 3 1 -3
2 3 12 10 8 4 1 -3
1 3 13 9 8 5 2 -2
-5 -2 11 7 7 4 1 -2
-7 -4 10 5 6 3 1 -2
-7 -4 9 5 6 4 1 -2
-6 -3 10 5 6 4 1 -2
-5 -2 11 5 7 4 2 0
-6 -3 11 4 5 3 1 -3
-7 -5 11 3 4 3 0 -3
-6 -4 10 3 4 2 0 -4
-4 -2 9 1 4 1 0 -4
-2 0 8 1 4 3 0 -3
-3 -2 8 1 4 3 2 0
-6 -4 8 2 4 4 2 0
-9 -5 8 1 3 3 2 0
-9 -5 8 1 4 2 1 0
-7 -5 8 0 3 1 0 -2
-6 -5 9 0 3 2 1 -2
-4 -4 8 0 3 3 2 -2
-4 -3 9 2 4 4 3 -2
-3 -2 8 2 4 3 2 -2
-4 0 9 1 4 3 2 -2
-5 -2 9 2 5 4 2 0
-6 -3 7 1 4 3 1 -2
-8 -4 8 1 5 3 1 -3
-7 -3 9 3 7 5 2 -2
-4 0 9 3 6 4 2 -3
-3 1 9 3 6 3 2 -3
-4 0 9 4 7 4 3 -3
-5 -2 9 4 6 4 2 -3
-7 -4 9 4 6 4 2 -3
-6 -2 9 4 6 4 2 -2
-3 2 10 5 7 5 4 0
-4 1 10 6 8 6 3 1
-7 -3 10 5 8 6 3 1
-6 -3 10 5 8 5 2 0
-5 0 11 6 9 6 3 1
-4 0 11 7 10 7 3 2
-5 -2 12 8 11 7 4 3
-5 0 10 8 10 6 4 2
-5 1 9 8 10 7 5 2
-6 0 9 9 11 7 5 2
-6 -2 7 8 10 7 4 1
-6 -2 8 9 11 8 4 2
-6 -2 10 10 12 9 5 3
-6 0 10 10 12 9 6 4
-4 3 9 9 12 9 6 2
0 5 10 11 14 11 7 2
1 4 10 11 14 11 7 3
0 3 9 10 14 10 6 3
-2 3 9 11 14 10 6 2
-3 3 10 12 15 11 6 2
-4 1 10 12 15 10 7 3
-5 0 8 11 14 9 6 2
-5 0 9 12 13 10 6 2
-5 1 10 13 14 11 7 3
-5 1 10 13 16 13 8 3
-5 2 11 13 16 13 8 3
-5 3 10 13 15 13 8 3
-4 4 10 14 16 13 8 3
-4 4 9 13 17 13 8 3
-5 3 8 12 16 12 7 2
-6 2 7 12 16 12 7 2
-4 4 8 13 17 13 7 3
-2 6 8 13 17 13 7 2
-4 4 10 14 18 14 8 3
-6 2 9 12 17 13 7 2
-6 2 10 13 17 13 7 3
-5 3 9 12 16 13 7 2
-3 3 7 12 16 13 7 3
-3 3 7 12 16 14 8 3
-4 2 6 11 15 12 7 2
-5 1 6 11 15 11 6 2
-4 3 6 11 15 11 7 2
-4 4 9 12 17 13 9 2
-6 3 9 12 17 13 9 3
-6 1 8 11 16 12 8 2
-4 2 7 9 14 11 6 1
-4 2 7 8 14 10 5 1
-4 2 6 8 13 10 5 1
-5 1 6 8 13 10 5 2
-5 1 6 8 12 10 5 2
-5 1 5 7 11 9 5 2
-6 -2 3 6 11 9 4 0
-7 -2 3 5 10 8 3 0
-6 0 5 6 12 10 5 3
-5 1 5 6 12 10 5 2
-5 0 5 5 11 8 4 0
-5 0 5 5 11 8 4 0
-5 -2 5 5 11 8 5 1
-8 -2 4 3 10 7 4 0
-9 -2 4 3 9 7 3 -2
-6 2 4 3 9 7 3 -2
-4 2 4 2 8 7 2 -3
-6 0 4 2 8 7 2 -3
-5 0 4 1 8 6 2 -3
-4 1 5 2 9 7 2 -3
-6 0 4 1 8 7 1 -4
-7 0 3 0 7 6 1 -4
-4 3 3 0 8 6 2 -3
-4 3 3 0 7 5 2 -3
-8 0 2 -2 6 4 1 -4
-9 -2 2 -2 5 4 1 -3
-9 -2 3 0 6 5 1 -3
-6 -2 3 -2 6 4 1 -3
-4 -2 2 -3 5 3 0 -4
-4 -2 1 -5 4 2 -2 -5
-7 -3 2 -5 4 3 -2 -5
-8 -4 1 -5 3 2 -2 -5
-6 -3 1 -5 3 3 -3 -6
-6 -2 2 -5 3 3 -2 -5
-6 -2 2 -5 3 3 -2 -5
-7 -2 1 -5 2 2 -3 -6
-8 -3 1 -5 2 2 -3 -6
-7 -3 2 -5 2 2 -3 -6
-6 -4 2 -5 2 2 -3 -7
-5 -4 1 -7 2 1 -4 -8
-7 -4 2 -6 2 2 -3 -7
-9 -5 3 -6 3 2 -3 -6
-9 -5 1 -6 2 1 -4 -6
-8 -5 0 -7 1 2 -4 -6
-7 -5 -2 -8 0 1 -5 -7
-8 -5 0 -7 0 2 -4 -5
-9 -5 0 -7 0 2 -4 -6
-8 -5 0 -8 0 1 -4 -6
-7 -6 0 -9 -2 0 -5 -8
-7 -6 1 -9 -2 0 -6 -9
-7 -5 0 -10 -3 -2 -6 -9
-7 -4 -3 -10 -3 -3 -6 -9
-8 -4 -3 -10 -3 -4 -7 -10
-7 -3 -2 -9 -3 -3 -7 -9
-7 -2 -2 -9 -4 -4 -8 -10
-9 -3 -3 -10 -4 -4 -7 -10
-9 -3 -2 -9 -2 -3 -7 -10
-5 1 1 -8 0 -2 -6 -9
0 3 1 -8 0 -2 -6 -8
-3 0 0 -9 -3 -2 -7 -8
-8 -6 -2 -12 -4 -3 -8 -9
-10 -7 -2 -11 -4 -3 -8 -8
-9 -6 -3 -11 -4 -3 -8 -9
-9 -6 -4 -12 -4 -4 -8 -9
-9 -5 -3 -11 -3 -3 -7 -8
-9 -4 -3 -11 -3 -3 -6 -6
-9 -5 -5 -11 -4 -4 -6 -7
-8 -4 -5 -12 -5 -5 -7 -10
-7 -4 -2 -11 -4 -3 -7 -9
-7 -4 -2 -11 -3 -3 -7 -9
-8 -4 -3 -11 -3 -3 -7 -9
-9 -3 -3 -11 -3 -4 -7 -8
-8 -2 -2 -10 -3 -3 -7 -8
-8 0 -3 -11 -4 -4 -8 -8
-8 0 -2 -11 -4 -4 -8 -8
-9 1 -2 -11 -4 -4 -8 -7
-8 2 1 -10 -2 -2 -6 -6
-7 3 2 -9 0 0 -5 -6
-6 4 1 -9 1 1 -5 -6
-7 5 2 -8 1 1 -5 -6
-9 5 4 -6 2 2 -4 -6
-9 7 4 -7 2 2 -3 -6
-7 10 6 -5 4 3 0 -3
-4 11 4 -7 3 2 -2 -4
-5 9 3 -8 1 0 -3 -5
-6 8 4 -7 2 1 -4 -5
-6 8 6 -7 3 2 -4 -6
-7 8 7 -6 3 3 -3 -6
-8 8 8 -5 4 4 -2 -5
-6 9 9 -3 6 5 0 -4
-5 11 9 0 7 7 1 -3
-5 13 9 1 8 8 2 -2
-5 15 8 1 9 8 3 0
-3 19 8 1 10 10 5 2
0 22 6 1 12 11 8 4
1 23 3 0 12 11 8 5
2 24 2 -2 11 11 8 5
3 23 2 -3 11 10 7 5
2 17 0 -4 9 9 6 3
1 10 -4 -6 6 6 3 1
4 11 -5 -7 5 6 2 2
6 14 -7 -7 5 6 2 2
4 12 -8 -8 4 5 1 1
1 8 -10 -11 2 3 0 0
1 10 -11 -12 1 3 0 0
3 12 -11 -11 1 3 1 0
3 10 -12 -12 0 2 0 -2
-2 8 -12 -14 -3 1 -2 -2
-3 9 -11 -15 -4 1 -3 -2
0 13 -10 -14 -2 2 0 1
1 16 -10 -15 -2 1 0 1
-4 15 -10 -16 -4 1 0 0
-8 10 -11 -18 -5 -2 -4 -4
-8 7 -10 -19 -6 -4 -6 -6
-9 5 -8 -17 -6 -3 -6 -6
-9 3 -7 -16 -6 -3 -7 -6
-9 1 -8 -17 -7 -5 -8 -7
-9 -2 -8 -17 -7 -5 -9 -9
-9 -4 -8 -19 -8 -7 -10 -11
-10 -7 -9 -20 -10 -9 -12 -13
-11 -10 -10 -21 -12 -11 -15 -15
-11 -11 -11 -22 -14 -13 -16 -15
-10 -10 -11 -22 -13 -12 -15 -14
-9 -8 -10 -21 -12 -11 -14 -13
-7 -6 -10 -20 -12 -10 -13 -13
-7 -6 -10 -20 -12 -10 -13 -14
-8 -6 -10 -20 -13 -11 -14 -14
-9 -8 -10 -20 -12 -11 -14 -15
-13 -10 -10 -22 -13 -11 -15 -16
-14 -10 -10 -22 -13 -11 -15 -16
-14 -10 -10 -21 -12 -11 -15 -15
-13 -9 -10 -21 -12 -12 -16 -16
-12 -8 -10 -20 -10 -11 -15 -15
-12 -8 -9 -19 -10 -10 -14 -14
-12 -9 -10 -20 -11 -10 -14 -14
-12 -9 -10 -20 -11 -9 -14 -14
-13 -9 -8 -19 -10 -8 -14 -14
-13 -9 -8 -20 -10 -9 -14 -14
-10 -8 -10 -21 -11 -10 -15 -14
-8 -7 -9 -21 -11 -10 -15 -14
-9 -6 -7 -20 -10 -10 -13 -14
-10 -6 -6 -19 -9 -9 -13 -13
-10 -7 -6 -19 -10 -9 -14 -13
-9 -8 -7 -19 -10 -9 -14 -13
-10 -8 -8 -19 -11 -10 -15 -14
-12 -10 -9 -19 -10 -10 -15 -15
-12 -11 -10 -20 -11 -11 -16 -16
-11 -10 -9 -19 -10 -10 -15 -15
-9 -7 -8 -19 -9 -9 -14 -14
-8 -5 -7 -17 -8 -8 -12 -14
-8 -6 -7 -18 -9 -9 -13 -14
-9 -8 -8 -19 -10 -10 -14 -15
-9 -7 -7 -19 -10 -10 -15 -15
-9 -7 -6 -16 -9 -9 -14 -14
-11 -9 -5 -15 -8 -9 -16 -16
-14 -11 -4 -14 -8 -11 -18 -18
-16 -12 0 -9 -5 -10 -18 -19
-15 -12 7 1 2 -7 -17 -20
-14 -11 12 13 10 -3 -16 -20
-12 -9 16 25 22 6 -13 -19
-10 -7 20 39 38 19 -6 -14
-9 -2 27 59 61 38 9 -5
-8 7 37 84 92 65 27 8
-5 16 44 105 128 98 50 21
3 24 50 126 167 135 74 35
9 28 59 152 211 177 102 52
13 32 65 173 252 218 128 66
18 39 68 183 286 257 155 84
27 51 61 180 309 285 180 102
38 61 40 154 303 294 195 117
50 67 8 105 261 269 192 126
58 69 -38 24 171 201 168 125
60 71 -91 -101 35 97 123 113
53 66 -139 -254 -117 -22 63 89
42 45 -183 -398 -261 -137 -8 51
32 15 -230 -519 -385 -236 -74 12
30 -6 -270 -595 -462 -296 -112 -10
34 -12 -288 -609 -481 -310 -124 -16
38 -15 -287 -580 -464 -302 -126 -17
36 -16 -284 -551 -443 -291 -127 -19
28 -9 -275 -516 -418 -277 -122 -18
16 10 -252 -464 -373 -251 -110 -13
6 27 -226 -407 -324 -217 -93 -5
2 33 -210 -364 -288 -192 -81 0
0 30 -197 -330 -261 -176 -76 -3
-5 27 -184 -296 -233 -157 -71 -6
-7 27 -168 -260 -203 -137 -63 -5
-6 28 -152 -229 -179 -120 -57 -6
-6 25 -136 -199 -156 -106 -52 -7
-7 20 -115 -168 -133 -90 -45 -8
-6 18 -92 -136 -107 -72 -36 -6
-5 15 -71 -106 -85 -57 -29 -6
-5 10 -55 -81 -66 -45 -25 -6
-5 5 -44 -63 -52 -36 -22 -7
-4 2 -35 -51 -41 -30 -20 -8
-3 2 -26 -39 -32 -23 -16 -7
-2 2 -19 -30 -26 -19 -15 -6
-3 0 -15 -24 -22 -18 -15 -7
-6 -4 -11 -20 -18 -15 -14 -8
-8 -5 -8 -16 -15 -13 -13 -8
-8 -6 -7 -14 -14 -12 -12 -9
-7 -8 -7 -13 -13 -12 -14 -11
-7 -9 -5 -10 -11 -11 -13 -10
-8 -10 -4 -8 -11 -11 -13 -11
-8 -10 -6 -8 -11 -11 -14 -11
-8 -9 -6 -7 -9 -11 -14 -11
-7 -7 -6 -4 -8 -10 -13 -10
-5 -5 -2 0 -5 -8 -12 -8
-3 -3 1 2 -4 -7 -12 -8
-3 -3 4 4 -2 -5 -10 -9
-6 -6 4 5 0 -5 -11 -10
-9 -10 4 7 0 -5 -11 -11
-9 -12 2 6 -2 -7 -13 -13
-7 -12 4 7 0 -6 -12 -12
-5 -9 3 7 0 -7 -12 -12
-6 -9 2 7 1 -7 -12 -10
-5 -8 3 9 2 -6 -11 -9
-4 -6 5 10 4 -5 -11 -9
-6 -8 6 11 4 -5 -11 -10
-8 -10 6 12 4 -5 -11 -11
-8 -10 7 14 4 -3 -10 -11
-7 -9 9 16 7 0 -9 -11
-6 -8 9 17 8 0 -9 -10
-5 -8 9 18 8 -2 -8 -10
-6 -10 6 17 7 -2 -10 -11
-7 -11 5 16 7 -4 -11 -12
-6 -9 6 17 7 -4 -10 -10
-4 -7 7 19 9 -2 -10 -9
-4 -7 9 21 10 1 -9 -9
-6 -8 10 22 11 2 -8 -9
-8 -9 11 24 11 2 -7 -9
-7 -10 11 24 11 2 -7 -9
-6 -10 12 25 12 3 -7 -9
-5 -9 11 25 12 2 -7 -9
-4 -8 10 26 13 2 -7 -9
-3 -8 10 27 14 3 -6 -8
-4 -7 11 28 15 3 -6 -8
-4 -7 12 29 16 3 -6 -7
-3 -6 14 30 16 4 -5 -7
-2 -5 16 33 19 6 -4 -6
0 -6 16 33 19 7 -4 -6
-3 -7 17 34 20 8 -4 -6
-4 -7 17 35 20 8 -3 -6
-3 -7 17 38 22 8 -3 -5
0 -7 16 37 21 7 -3 -6
-2 -7 15 37 21 6 -3 -6
-2 -6 14 39 22 8 -3 -6
1 -3 16 42 24 9 -2 -4
2 -2 19 45 26 11 1 -3
-3 -5 19 46 26 12 1 -4
-5 -7 19 46 26 11 0 -5
-4 -7 21 48 29 12 1 -4
-3 -8 21 50 30 13 1 -3
-3 -7 21 52 30 13 1 -2
1 -4 20 52 30 13 2 -2
3 -2 20 53 31 13 3 -2
2 0 20 55 32 14 4 0
1 0 22 57 34 16 5 1
2 1 25 60 36 18 6 2
2 2 27 63 38 20 8 4
1 1 26 64 38 20 7 3
0 0 25 66 39 21 7 3
1 -2 25 67 40 21 7 3
2 0 25 68 42 20 8 4
4 2 25 70 43 20 9 5
5 3 26 71 45 21 9 6
7 5 27 74 47 23 11 8
8 7 29 77 48 24 13 9
5 6 29 79 48 24 13 10
3 4 30 81 49 26 14 10
4 4 31 84 50 26 14 10
5 4 32 86 52 28 14 10
5 3 31 87 53 28 14 9
6 5 31 89 54 28 15 10
8 7 32 90 56 29 16 11
9 8 31 92 56 29 17 12
10 9 32 94 57 30 18 14
11 13 33 96 58 31 19 16
11 14 36 98 60 33 20 16
7 10 35 99 60 33 19 15
4 7 34 100 60 33 18 14
6 8 36 103 62 34 20 15
9 10 38 106 64 36 22 18
12 13 37 107 64 35 23 18
14 15 35 106 62 33 22 17
14 15 35 107 62 33 21 17
13 15 36 108 62 33 22 19
13 16 36 108 62 33 21 19
12 16 38 109 63 34 21 20
11 15 37 109 63 33 20 19
10 14 37 109 63 32 21 20
12 14 37 109 62 31 20 19
15 15 37 110 61 30 19 18
17 18 36 108 59 28 18 17
18 20 36 108 57 27 17 18
17 21 35 107 56 26 17 18
16 19 33 105 54 24 15 16
15 17 34 104 52 22 14 16
16 17 36 104 52 22 14 17
15 16 38 104 52 22 14 17
12 13 38 103 50 20 13 15
12 12 37 102 48 18 11 14
15 14 36 101 47 17 10 13
16 15 36 100 46 16 11 14
13 14 36 97 43 14 9 13
13 14 34 94 40 12 7 12
14 13 32 91 37 9 5 11
13 12 32 89 35 8 4 10
11 10 32 86 33 7 3 9
11 10 32 85 32 6 3 9
10 9 33 84 32 6 4 10
10 9 33 81 30 5 2 9
12 9 32 79 27 3 1 7
12 10 31 76 26 2 0 8
12 10 30 72 24 0 -2 7
14 12 27 70 22 -3 -3 5
15 12 26 68 21 -3 -4 4
11 9 25 64 19 -5 -5 3
7 6 26 62 18 -4 -6 3
7 7 27 60 18 -4 -5 3
8 8 29 60 20 -2 -3 4
8 6 28 57 19 -3 -5 1
6 3 27 55 18 -3 -6 0
4 2 25 52 17 -4 -5 0
5 3 22 48 16 -5 -6 -2
5 3 21 46 16 -4 -6 -2
5 4 21 44 16 -3 -6 -2
4 4 21 42 16 -2 -5 -2
3 3 21 39 17 0 -4 -2
3 2 20 36 16 0 -4 -2
3 2 19 34 16 0 -4 -2
2 1 19 33 16 1 -3 -2
1 0 18 31 16 2 -4 -2
-2 0 17 27 14 2 -5 -3
0 0 17 26 14 3 -4 -3
0 0 16 24 14 2 -3 -3
0 0 13 22 13 1 -5 -3
0 0 12 19 12 1 -4 -4
2 1 12 18 12 3 -4 -4
4 1 11 17 12 4 -3 -4
3 1 12 16 13 5 -2 -2
1 0 11 15 12 5 -2 -3
0 -2 10 12 11 4 -3 -4
-2 -2 9 10 10 4 -2 -4
-5 -4 8 8 8 3 -4 -5
-6 -5 7 7 8 3 -4 -5
-4 -2 7 6 8 3 -3 -5
-5 0 8 6 8 4 -2 -4
-6 -4 9 5 7 4 -2 -4
-4 -5 7 3 5 2 -4 -6
0 -3 7 3 6 3 -3 -6
-2 -3 7 3 7 4 -2 -5
-4 -4 6 2 6 4 -3 -6
-6 -5 5 1 5 3 -3 -6
-7 -5 4 0 4 2 -4 -6
-5 -3 6 1 5 3 -3 -5
-3 -2 6 1 5 3 -2 -5
-4 -4 6 0 5 3 -2 -6
-5 -5 6 0 5 2 -3 -5
-4 -3 6 1 5 3 -3 -5
-4 0 7 2 6 5 -2 -5
-4 -2 6 1 6 4 0 -5
-6 -5 6 1 6 4 -2 -4
-7 -5 4 -2 4 2 -3 -5
-5 -4 4 -2 5 2 -3 -5
-3 -3 3 -3 5 2 -3 -5
-4 -3 4 -2 4 3 -3 -5
-4 -2 5 -2 4 2 -2 -4
-2 2 7 0 5 4 -2 -3
-2 1 7 1 6 4 -2 -3
-3 -2 5 1 5 3 -2 -5
-4 -2 4 1 6 3 -2 -5
-3 0 5 2 7 4 0 -3
-3 0 6 2 7 4 1 -4
-3 0 6 1 7 3 0 -5
-4 0 6 1 7 4 1 -4
-5 0 5 1 6 3 0 -3
-5 -2 6 1 6 3 0 -3
-5 0 6 1 6 4 0 -3
-4 2 6 2 6 5 0 -2
-5 1 7 3 8 6 0 -2
-5 -2 8 3 9 7 0 -2
-5 -2 8 4 9 7 1 0
-4 0 7 4 9 6 1 -2
-3 1 6 3 8 6 1 -3
-3 1 5 3 8 6 1 -3
-3 1 5 3 7 6 1 -2
-3 1 5 4 8 6 1 -2
-3 2 7 5 10 8 1 0
-3 2 8 6 11 9 1 0
-5 1 8 7 11 9 1 0
-6 0 8 7 11 9 2 -2
-6 -2 7 6 10 8 1 -2
-4 1 7 7 12 9 3 0
-2 3 6 7 12 9 3 0
-4 3 6 7 12 9 3 0
-4 3 5 6 11 9 2 0
-4 4 6 7 12 10 3 0
-4 4 7 8 13 10 3 1
-3 3 7 9 14 11 4 1
-2 2 7 9 14 10 4 1
-3 1 6 8 14 9 3 -2
-5 1 6 8 14 9 2 -2
-6 1 5 8 13 9 2 -2
-4 1 5 8 14 10 4 -2
0 4 5 8 14 9 3 0
2 6 5 8 13 8 3 0
-2 5 6 8 15 10 4 1
-5 2 5 7 14 11 3 0
-5 1 5 7 13 10 2 0
-3 4 5 8 14 10 4 0
0 6 6 9 15 11 6 1
-2 4 5 8 14 11 5 1
-5 1 4 7 14 11 4 1
-5 1 4 6 13 11 4 0
-6 1 4 6 12 10 3 0
-6 0 4 6 13 10 4 1
-3 2 5 6 13 10 3 1
1 4 5 6 13 10 3 0
0 2 6 6 12 10 3 -2
-4 0 6 6 13 9 3 -2
-5 0 4 6 13 9 3 -2
-5 0 4 6 13 10 3 -2
-4 -2 4 5 13 9 3 -2
-4 -2 4 5 12 8 3 -2
-4 0 4 4 11 9 3 -2
-5 1 4 4 11 10 3 0
-5 2 5 4 11 10 3 0
-4 2 4 3 10 9 2 -2
-4 1 4 4 10 9 2 -3
-4 -2 2 3 8 7 1 -5
-2 1 2 2 8 6 1 -5
1 1 2 1 8 6 0 -6
-2 -2 3 2 10 8 2 -3
-3 -3 2 1 10 7 2 -3
-2 0 1 0 9 7 2 -3
1 1 0 -2 7 6 1 -3
0 -2 1 -2 7 6 2 -2
-2 -2 2 0 8 7 2 -2
-3 -3 2 0 7 6 1 -3
-5 -5 2 -2 7 6 1 -2
-7 -7 1 -3 6 5 0 -4
-5 -5 1 -4 7 5 -2 -5
-3 -3 2 -4 7 4 0 -5
-4 -4 1 -4 6 4 0 -5
-6 -5 0 -5 5 3 -2 -5
-5 -4 0 -5 5 2 -3 -5
-4 -3 1 -5 5 4 -2 -4
-3 -3 -2 -6 4 3 -3 -5
-3 -3 -2 -5 3 3 -3 -5
-3 -3 0 -5 4 3 -3 -5
-3 -3 0 -5 4 3 -2 -5
-3 -4 0 -5 4 3 -2 -5
-3 -6 -2 -7 3 1 -4 -7
-4 -7 -2 -8 2 2 -4 -7
-5 -6 0 -7 3 3 -4 -6
-4 -5 0 -7 3 2 -4 -5
-3 -4 0 -6 3 2 -3 -4
-4 -3 0 -6 3 2 -3 -5
-5 -4 -2 -7 2 1 -4 -6
-5 -6 0 -7 2 1 -5 -6
-5 -6 -2 -7 3 2 -4 -6
-4 -6 -2 -8 3 3 -3 -5
-3 -6 -3 -9 2 1 -4 -6
-3 -6 -4 -10 1 0 -5 -6
-4 -6 -3 -10 2 1 -5 -6
-4 -6 -3 -10 1 1 -5 -6
-5 -6 -4 -11 0 0 -6 -6
-6 -7 -4 -10 0 0 -6 -6
-5 -6 -3 -11 0 0 -6 -8
-4 -6 0 -9 2 1 -5 -7
-3 -5 0 -9 2 1 -5 -6
-3 -5 0 -9 2 2 -4 -6
-4 -6 -2 -9 1 0 -4 -6
-6 -7 -3 -10 -2 -2 -5 -6
-5 -5 -4 -11 -3 -2 -5 -6
-3 -3 -4 -12 -3 -3 -5 -7
-4 -6 -3 -11 -2 -3 -5 -6
-5 -7 -4 -13 -3 -4 -7 -8
-4 -6 -2 -11 -3 -2 -6 -7
-5 -7 0 -10 -2 -3 -6 -6
-8 -8 0 -10 0 -2 -5 -6
-8 -10 -2 -11 -3 -3 -6 -8
-5 -9 -4 -12 -3 -3 -6 -8
-2 -8 -4 -12 -2 -3 -5 -6
-3 -9 -5 -13 -3 -4 -6 -7
-7 -11 -5 -14 -4 -5 -7 -9
-8 -10 -4 -15 -4 -5 -8 -10
-7 -9 -3 -13 -3 -3 -6 -8
-6 -8 -3 -13 -3 -3 -6 -7
-5 -7 -3 -13 -3 -4 -7 -8
-5 -7 -3 -13 -3 -5 -6 -9
-3 -7 -3 -13 -3 -4 -6 -8
-3 -7 -4 -13 -3 -3 -6 -8
-5 -8 -4 -14 -2 -4 -5 -7
-7 -10 -5 -15 -3 -4 -6 -8
-7 -11 -5 -15 -4 -5 -6 -8
-6 -9 -5 -15 -4 -4 -7 -9
-6 -7 -4 -13 -3 -3 -7 -8
-5 -5 -3 -13 -4 -3 -7 -9
-4 -3 -2 -12 -2 -2 -6 -8
-3 -2 0 -12 0 -2 -5 -7
-3 -3 -2 -13 -3 -3 -6 -8
-3 -3 -3 -13 -2 -3 -6 -7
-2 0 -2 -11 1 -2 -4 -6
-2 3 0 -10 2 1 -3 -5
-2 4 2 -8 3 2 -2 -4
-3 3 3 -7 4 3 0 -3
-4 2 3 -8 3 1 -2 -5
-3 1 4 -9 3 1 -2 -5
-3 2 6 -7 4 2 0 -4
-3 3 8 -6 5 3 0 -3
-2 4 8 -6 6 3 0 -3
0 4 8 -6 6 4 1 -2
0 5 7 -6 6 4 2 -2
-2 5 8 -4 8 6 3 1
0 6 8 -4 9 7 3 1
1 8 8 -2 11 9 5 2
3 12 8 0 13 10 6 3
3 15 7 0 14 11 7 5
4 15 5 0 14 12 9 7
5 15 2 -2 13 11 8 7
6 14 1 -3 13 11 9 7
6 10 1 -3 12 10 9 7
6 5 -4 -7 8 8 6 4
6 2 -7 -9 6 5 3 2
5 2 -7 -9 6 6 3 3
6 3 -10 -11 4 4 2 2
7 4 -13 -13 2 3 1 1
7 4 -12 -13 2 2 2 1
7 4 -12 -13 2 2 2 1
7 3 -10 -13 2 3 3 2
6 3 -11 -15 1 2 2 2
3 3 -11 -16 1 2 2 2
1 4 -12 -17 0 1 2 1
0 5 -13 -17 -2 1 1 2
2 8 -12 -18 -3 2 2 3
2 6 -11 -19 -4 0 1 1
-2 1 -10 -20 -5 -3 -3 -3
-5 -3 -9 -20 -6 -4 -6 -5
-5 -4 -7 -19 -6 -5 -6 -5
-5 -7 -7 -19 -6 -6 -7 -7
-7 -10 -8 -20 -8 -8 -8 -9
-6 -12 -9 -21 -9 -9 -10 -10
-3 -12 -9 -22 -10 -10 -11 -11
-4 -13 -10 -22 -11 -10 -11 -11
-6 -15 -12 -24 -13 -13 -13 -12
-6 -15 -13 -25 -13 -13 -13 -12
-5 -14 -11 -24 -12 -11 -12 -11
-6 -15 -12 -24 -12 -11 -12 -12
-7 -16 -12 -24 -12 -12 -13 -13
-6 -15 -11 -22 -10 -11 -12 -12
-5 -14 -10 -22 -10 -10 -11 -11
-7 -14 -11 -23 -11 -10 -12 -12
-9 -16 -12 -23 -11 -11 -12 -12
-9 -17 -13 -23 -12 -12 -13 -13
-7 -14 -11 -22 -11 -10 -11 -12
-5 -12 -9 -19 -9 -9 -10 -11
-6 -14 -9 -20 -10 -9 -10 -12
-9 -17 -11 -23 -11 -12 -13 -13
-9 -17 -11 -23 -11 -12 -13 -12
-8 -15 -10 -22 -10 -11 -12 -12
-7 -15 -10 -22 -10 -10 -11 -12
-6 -15 -9 -21 -10 -9 -11 -11
-5 -15 -9 -21 -9 -9 -10 -10
-5 -14 -10 -21 -9 -8 -10 -10
-7 -15 -10 -22 -10 -9 -11 -11
-9 -16 -10 -22 -10 -11 -12 -11
-9 -17 -9 -23 -11 -11 -13 -13
-9 -17 -9 -23 -11 -11 -13 -13
-9 -17 -8 -22 -10 -11 -13 -13
-7 -17 -8 -21 -9 -11 -12 -12
-6 -16 -8 -20 -10 -10 -12 -12
-6 -15 -7 -20 -9 -9 -10 -12
-7 -15 -8 -20 -9 -9 -11 -12
-7 -15 -9 -21 -10 -11 -12 -12
-7 -16 -9 -22 -10 -12 -13 -13
-9 -16 -8 -21 -9 -11 -12 -12
-8 -14 -6 -19 -9 -10 -12 -12
-6 -13 -3 -16 -6 -9 -11 -12
-7 -14 -3 -14 -6 -10 -13 -13
-8 -16 0 -11 -5 -10 -14 -15
-7 -15 3 -5 0 -9 -14 -16
-6 -14 8 7 8 -6 -13 -16
-8 -16 11 18 18 1 -11 -16
-9 -15 14 29 30 11 -7 -13
-7 -11 21 47 50 28 6 -6
-3 -3 30 71 78 52 23 5
0 6 38 95 112 82 45 19
3 14 46 117 150 119 68 33
9 20 54 143 193 159 95 47
16 24 63 167 235 200 120 62
22 29 66 180 270 237 146 78
30 39 64 180 295 268 171 96
40 50 48 158 295 279 187 111
51 54 16 112 260 260 186 120
57 55 -28 38 181 201 165 119
60 58 -78 -76 57 107 127 112
57 57 -130 -226 -92 -7 72 93
48 42 -173 -373 -236 -119 6 59
39 14 -217 -499 -361 -220 -62 18
35 -10 -261 -590 -449 -288 -106 -9
36 -20 -286 -617 -479 -312 -122 -18
39 -22 -291 -596 -467 -307 -124 -19
40 -22 -289 -565 -447 -298 -124 -19
34 -15 -283 -534 -426 -285 -122 -19
21 -2 -261 -485 -386 -261 -111 -14
8 16 -232 -427 -336 -226 -93 -4
2 25 -213 -380 -296 -198 -78 2
0 24 -201 -346 -268 -181 -72 1
-2 21 -188 -310 -239 -163 -68 -3
-2 23 -172 -273 -208 -142 -59 -2
-3 24 -156 -240 -183 -123 -52 0
-3 21 -140 -211 -160 -109 -47 -3
0 18 -122 -181 -138 -96 -41 -4
0 16 -100 -148 -114 -79 -34 -3
0 13 -78 -117 -90 -64 -28 -3
1 9 -61 -93 -70 -51 -23 -4
2 3 -50 -75 -57 -43 -21 -7
0 -3 -38 -58 -45 -35 -18 -6
0 -4 -29 -45 -34 -28 -15 -6
0 -4 -22 -34 -27 -22 -13 -6
-3 -6 -17 -27 -23 -20 -13 -5
-5 -7 -13 -22 -19 -19 -13 -5
-4 -7 -10 -19 -16 -17 -12 -5
-4 -7 -8 -16 -14 -16 -11 -6
-4 -8 -8 -14 -14 -16 -12 -7
-4 -10 -7 -12 -12 -15 -12 -7
-3 -10 -7 -11 -12 -15 -12 -9
-5 -10 -7 -10 -12 -15 -13 -10
-6 -10 -5 -8 -9 -13 -11 -8
-5 -10 -5 -7 -9 -13 -12 -9
-5 -10 -5 -6 -9 -13 -12 -9
-6 -11 -3 -4 -7 -11 -11 -9
-7 -12 -2 -2 -6 -9 -11 -8
-6 -12 -2 -2 -5 -11 -11 -10
-5 -12 2 3 -3 -9 -10 -8
-4 -12 4 5 0 -7 -8 -7
-3 -11 3 5 0 -9 -9 -8
-4 -12 3 6 1 -8 -8 -8
-5 -12 2 6 0 -8 -9 -9
-6 -12 1 5 -2 -9 -10 -10
-5 -11 2 8 1 -8 -8 -8
-3 -10 5 9 4 -6 -7 -7
-4 -10 7 10 4 -5 -7 -7
-5 -12 7 12 4 -5 -7 -7
-4 -11 8 13 5 -5 -7 -7
-2 -9 9 14 6 -4 -7 -7
-3 -10 9 15 6 -4 -7 -8
-6 -12 7 14 4 -6 -8 -10
-5 -12 7 14 4 -6 -9 -10
-3 -11 7 14 5 -6 -9 -10
-3 -11 8 16 6 -4 -8 -8
-3 -12 8 17 7 -3 -7 -7
-2 -11 9 19 9 -2 -6 -6
-2 -10 9 20 9 -2 -6 -7
-3 -10 11 22 11 1 -5 -6
-4 -11 11 22 11 0 -5 -7
-3 -10 12 23 11 -2 -4 -7
-2 -10 11 23 11 -2 -5 -7
-3 -10 11 24 12 0 -5 -7
-5 -10 10 24 12 -2 -6 -7
-5 -10 11 25 12 0 -5 -6
-3 -9 12 27 14 1 -4 -5
-3 -8 14 29 16 3 -3 -4
-3 -9 15 30 16 3 -3 -5
-3 -10 16 32 18 4 -3 -5
0 -9 16 33 20 4 -3 -5
1 -8 17 34 21 5 0 -4
2 -7 16 35 21 4 0 -4
1 -6 17 36 22 5 0 -4
1 -6 16 36 22 5 -2 -3
-2 -7 16 37 23 6 0 -3
-4 -8 15 38 23 6 0 -4
-4 -8 17 40 24 7 0 -3
-2 -6 19 43 26 8 2 -2
0 -5 21 45 27 8 2 0
1 -6 21 46 27 8 1 -2
1 -7 21 49 28 8 2 0
1 -6 20 50 28 9 2 0
2 -4 21 51 29 10 2 0
5 0 22 53 31 11 4 2
3 -2 22 55 33 11 4 2
-3 -6 23 56 34 11 4 2
-3 -6 24 57 34 12 5 3
3 -2 25 60 36 14 7 4
4 0 27 63 38 17 8 6
2 -3 27 64 38 17 8 5
2 -3 26 66 38 17 8 5
4 0 27 68 40 18 9 7
3 2 28 69 42 19 10 8
2 2 28 72 44 20 12 9
4 2 27 72 44 19 12 8
6 3 28 74 45 20 12 8
7 4 29 76 47 22 14 10
